timestamp,ecg,reconstructed_time
2025-11-07 17:08:01.694013,-2141,2025-11-07 17:08:01.694013000
2025-11-07 17:08:01.694013,-32513,2025-11-07 17:08:01.701705308
2025-11-07 17:08:01.694013,-9,2025-11-07 17:08:01.709397615
2025-11-07 17:08:01.694013,-2219,2025-11-07 17:08:01.717089923
2025-11-07 17:08:01.694013,-6913,2025-11-07 17:08:01.724782231
2025-11-07 17:08:01.694013,-9,2025-11-07 17:08:01.732474538
2025-11-07 17:08:01.694013,-2207,2025-11-07 17:08:01.740166846
2025-11-07 17:08:01.694013,-14849,2025-11-07 17:08:01.747859154
2025-11-07 17:08:01.694013,-9,2025-11-07 17:08:01.755551462
2025-11-07 17:08:01.694013,-2100,2025-11-07 17:08:01.763243769
2025-11-07 17:08:01.694013,18943,2025-11-07 17:08:01.770936077
2025-11-07 17:08:01.694013,-9,2025-11-07 17:08:01.778628385
2025-11-07 17:08:01.694013,-2086,2025-11-07 17:08:01.786320692
2025-11-07 17:08:01.694013,25087,2025-11-07 17:08:01.794013000
2025-11-07 17:08:01.694013,-9,2025-11-07 17:08:01.801705308
2025-11-07 17:08:01.694013,-2188,2025-11-07 17:08:01.809397615
2025-11-07 17:08:01.694013,-15617,2025-11-07 17:08:01.817089923
2025-11-07 17:08:01.694013,-9,2025-11-07 17:08:01.824782231
2025-11-07 17:08:01.694013,-2269,2025-11-07 17:08:01.832474538
2025-11-07 17:08:01.694013,-20481,2025-11-07 17:08:01.840166846
2025-11-07 17:08:01.694013,-9,2025-11-07 17:08:01.847859154
2025-11-07 17:08:01.694013,-2196,2025-11-07 17:08:01.855551462
2025-11-07 17:08:01.694013,12799,2025-11-07 17:08:01.863243769
2025-11-07 17:08:01.694013,-9,2025-11-07 17:08:01.870936077
2025-11-07 17:08:01.694013,-2105,2025-11-07 17:08:01.878628385
2025-11-07 17:08:01.694013,11007,2025-11-07 17:08:01.886320692
2025-11-07 17:08:01.694013,-9,2025-11-07 17:08:01.894013000
2025-11-07 17:08:01.694013,-2165,2025-11-07 17:08:01.901705308
2025-11-07 17:08:01.694013,-22273,2025-11-07 17:08:01.909397615
2025-11-07 17:08:01.694013,-9,2025-11-07 17:08:01.917089923
2025-11-07 17:08:01.694013,-2269,2025-11-07 17:08:01.924782231
2025-11-07 17:08:01.694013,-18689,2025-11-07 17:08:01.932474538
2025-11-07 17:08:01.694013,-9,2025-11-07 17:08:01.940166846
2025-11-07 17:08:01.694013,-2248,2025-11-07 17:08:01.947859154
2025-11-07 17:08:01.694013,14591,2025-11-07 17:08:01.955551462
2025-11-07 17:08:01.694013,-9,2025-11-07 17:08:01.963243769
2025-11-07 17:08:01.694013,-2165,2025-11-07 17:08:01.970936077
2025-11-07 17:08:01.694013,-1793,2025-11-07 17:08:01.978628385
2025-11-07 17:08:01.694013,-10,2025-11-07 17:08:01.986320692
2025-11-07 17:08:01.694013,-2086,2025-11-07 17:08:01.994013000
2025-11-07 17:08:01.694013,9471,2025-11-07 17:08:02.001705308
2025-11-07 17:08:01.694013,-8,2025-11-07 17:08:02.009397615
2025-11-07 17:08:01.694013,-2055,2025-11-07 17:08:02.017089923
2025-11-07 17:08:01.694013,12543,2025-11-07 17:08:02.024782231
2025-11-07 17:08:01.694013,-8,2025-11-07 17:08:02.032474538
2025-11-07 17:08:01.694013,-2207,2025-11-07 17:08:02.040166846
2025-11-07 17:08:01.694013,-10753,2025-11-07 17:08:02.047859154
2025-11-07 17:08:01.694013,-9,2025-11-07 17:08:02.055551462
2025-11-07 17:08:01.694013,-2057,2025-11-07 17:08:02.063243769
2025-11-07 17:08:01.694013,25087,2025-11-07 17:08:02.070936077
2025-11-07 17:08:01.694013,-9,2025-11-07 17:08:02.078628385
2025-11-07 17:08:01.694013,-2033,2025-11-07 17:08:02.086320692
2025-11-07 17:08:01.694013,-24577,2025-11-07 17:08:02.094013000
2025-11-07 17:08:01.694013,-9,2025-11-07 17:08:02.101705308
2025-11-07 17:08:01.694013,-2157,2025-11-07 17:08:02.109397615
2025-11-07 17:08:01.694013,255,2025-11-07 17:08:02.117089923
2025-11-07 17:08:01.694013,-8,2025-11-07 17:08:02.124782231
2025-11-07 17:08:01.694013,-2200,2025-11-07 17:08:02.132474538
2025-11-07 17:08:01.694013,-3841,2025-11-07 17:08:02.140166846
2025-11-07 17:08:01.694013,-9,2025-11-07 17:08:02.147859154
2025-11-07 17:08:01.694013,-2114,2025-11-07 17:08:02.155551462
2025-11-07 17:08:01.694013,27391,2025-11-07 17:08:02.163243769
2025-11-07 17:08:01.694013,-9,2025-11-07 17:08:02.170936077
2025-11-07 17:08:01.694013,-2050,2025-11-07 17:08:02.178628385
2025-11-07 17:08:01.694013,23039,2025-11-07 17:08:02.186320692
2025-11-07 17:08:01.694013,-9,2025-11-07 17:08:02.194013000
2025-11-07 17:08:01.694013,-2141,2025-11-07 17:08:02.201705308
2025-11-07 17:08:01.694013,-13825,2025-11-07 17:08:02.209397615
2025-11-07 17:08:01.694013,-9,2025-11-07 17:08:02.217089923
2025-11-07 17:08:01.694013,-2238,2025-11-07 17:08:02.224782230
2025-11-07 17:08:01.694013,-6401,2025-11-07 17:08:02.232474538
2025-11-07 17:08:01.694013,-9,2025-11-07 17:08:02.240166846
2025-11-07 17:08:01.694013,-2176,2025-11-07 17:08:02.247859154
2025-11-07 17:08:01.694013,-30209,2025-11-07 17:08:02.255551462
2025-11-07 17:08:01.694013,-9,2025-11-07 17:08:02.263243769
2025-11-07 17:08:01.694013,-2033,2025-11-07 17:08:02.270936077
2025-11-07 17:08:01.694013,-32001,2025-11-07 17:08:02.278628385
2025-11-07 17:08:01.694013,-9,2025-11-07 17:08:02.286320692
2025-11-07 17:08:01.694013,-2019,2025-11-07 17:08:02.294013000
2025-11-07 17:08:01.694013,2047,2025-11-07 17:08:02.301705308
2025-11-07 17:08:01.694013,-8,2025-11-07 17:08:02.309397615
2025-11-07 17:08:01.694013,-2107,2025-11-07 17:08:02.317089923
2025-11-07 17:08:01.694013,29695,2025-11-07 17:08:02.324782231
2025-11-07 17:08:01.694013,-8,2025-11-07 17:08:02.332474538
2025-11-07 17:08:01.694013,-2074,2025-11-07 17:08:02.340166846
2025-11-07 17:08:01.694013,13055,2025-11-07 17:08:02.347859154
2025-11-07 17:08:01.694013,-8,2025-11-07 17:08:02.355551462
2025-11-07 17:08:01.694013,-1957,2025-11-07 17:08:02.363243769
2025-11-07 17:08:01.694013,-13825,2025-11-07 17:08:02.370936077
2025-11-07 17:08:01.694013,-9,2025-11-07 17:08:02.378628385
2025-11-07 17:08:01.694013,-1945,2025-11-07 17:08:02.386320692
2025-11-07 17:08:01.694013,-2817,2025-11-07 17:08:02.394013000
2025-11-07 17:08:01.694013,-9,2025-11-07 17:08:02.401705308
2025-11-07 17:08:01.694013,-2074,2025-11-07 17:08:02.409397615
2025-11-07 17:08:01.694013,22271,2025-11-07 17:08:02.417089923
2025-11-07 17:08:01.694013,-8,2025-11-07 17:08:02.424782231
2025-11-07 17:08:01.694013,-2136,2025-11-07 17:08:02.432474538
2025-11-07 17:08:01.694013,8191,2025-11-07 17:08:02.440166846
2025-11-07 17:08:01.694013,-8,2025-11-07 17:08:02.447859154
2025-11-07 17:08:01.694013,-2053,2025-11-07 17:08:02.455551462
2025-11-07 17:08:01.694013,-19713,2025-11-07 17:08:02.463243769
2025-11-07 17:08:01.694013,-9,2025-11-07 17:08:02.470936077
2025-11-07 17:08:01.694013,-1955,2025-11-07 17:08:02.478628385
2025-11-07 17:08:01.694013,-11777,2025-11-07 17:08:02.486320692
2025-11-07 17:08:01.694013,-9,2025-11-07 17:08:02.494013000
2025-11-07 17:08:01.694013,-2014,2025-11-07 17:08:02.501705308
2025-11-07 17:08:01.694013,27135,2025-11-07 17:08:02.509397615
2025-11-07 17:08:01.694013,-8,2025-11-07 17:08:02.517089923
2025-11-07 17:08:01.694013,-2072,2025-11-07 17:08:02.524782231
2025-11-07 17:08:02.231356,-1893,2025-11-07 17:08:02.532474538
2025-11-07 17:08:02.231356,18687,2025-11-07 17:08:02.540166846
2025-11-07 17:08:02.231356,-8,2025-11-07 17:08:02.547859154
2025-11-07 17:08:02.231356,-1971,2025-11-07 17:08:02.555551462
2025-11-07 17:08:02.231356,-8961,2025-11-07 17:08:02.563243769
2025-11-07 17:08:02.231356,-8,2025-11-07 17:08:02.570936077
2025-11-07 17:08:02.231356,-1974,2025-11-07 17:08:02.578628385
2025-11-07 17:08:02.231356,-8449,2025-11-07 17:08:02.586320692
2025-11-07 17:08:02.231356,-8,2025-11-07 17:08:02.594013000
2025-11-07 17:08:02.231356,-1831,2025-11-07 17:08:02.601705308
2025-11-07 17:08:02.231356,-30465,2025-11-07 17:08:02.609397615
2025-11-07 17:08:02.231356,-8,2025-11-07 17:08:02.617089923
2025-11-07 17:08:02.231356,-1735,2025-11-07 17:08:02.624782231
2025-11-07 17:08:02.231356,-16385,2025-11-07 17:08:02.632474538
2025-11-07 17:08:02.231356,-8,2025-11-07 17:08:02.640166846
2025-11-07 17:08:02.231356,-1790,2025-11-07 17:08:02.647859154
2025-11-07 17:08:02.231356,9983,2025-11-07 17:08:02.655551462
2025-11-07 17:08:02.231356,-7,2025-11-07 17:08:02.663243769
2025-11-07 17:08:02.231356,-1909,2025-11-07 17:08:02.670936077
2025-11-07 17:08:02.231356,10495,2025-11-07 17:08:02.678628385
2025-11-07 17:08:02.231356,-7,2025-11-07 17:08:02.686320692
2025-11-07 17:08:02.231356,-1869,2025-11-07 17:08:02.694013000
2025-11-07 17:08:02.231356,-27905,2025-11-07 17:08:02.701705308
2025-11-07 17:08:02.231356,-8,2025-11-07 17:08:02.709397615
2025-11-07 17:08:02.231356,-1776,2025-11-07 17:08:02.717089923
2025-11-07 17:08:02.231356,24831,2025-11-07 17:08:02.724782231
2025-11-07 17:08:02.231356,-8,2025-11-07 17:08:02.732474538
2025-11-07 17:08:02.231356,-1836,2025-11-07 17:08:02.740166846
2025-11-07 17:08:02.231356,-15873,2025-11-07 17:08:02.747859154
2025-11-07 17:08:02.231356,-8,2025-11-07 17:08:02.755551462
2025-11-07 17:08:02.231356,-1964,2025-11-07 17:08:02.763243769
2025-11-07 17:08:02.231356,-4865,2025-11-07 17:08:02.770936077
2025-11-07 17:08:02.231356,-8,2025-11-07 17:08:02.778628385
2025-11-07 17:08:02.231356,-1971,2025-11-07 17:08:02.786320692
2025-11-07 17:08:02.231356,30719,2025-11-07 17:08:02.794013000
2025-11-07 17:08:02.231356,-8,2025-11-07 17:08:02.801705308
2025-11-07 17:08:02.231356,-1859,2025-11-07 17:08:02.809397615
2025-11-07 17:08:02.231356,12031,2025-11-07 17:08:02.817089923
2025-11-07 17:08:02.231356,-8,2025-11-07 17:08:02.824782231
2025-11-07 17:08:02.231356,-1833,2025-11-07 17:08:02.832474538
2025-11-07 17:08:02.231356,29695,2025-11-07 17:08:02.840166846
2025-11-07 17:08:02.231356,-8,2025-11-07 17:08:02.847859154
2025-11-07 17:08:02.231356,-1986,2025-11-07 17:08:02.855551462
2025-11-07 17:08:02.231356,-8449,2025-11-07 17:08:02.863243769
2025-11-07 17:08:02.231356,-8,2025-11-07 17:08:02.870936077
2025-11-07 17:08:02.231356,-1893,2025-11-07 17:08:02.878628385
2025-11-07 17:08:02.231356,25087,2025-11-07 17:08:02.886320692
2025-11-07 17:08:02.231356,-7,2025-11-07 17:08:02.894013000
2025-11-07 17:08:02.231356,-1754,2025-11-07 17:08:02.901705308
2025-11-07 17:08:02.231356,23551,2025-11-07 17:08:02.909397615
2025-11-07 17:08:02.231356,-8,2025-11-07 17:08:02.917089923
2025-11-07 17:08:02.231356,-1795,2025-11-07 17:08:02.924782231
2025-11-07 17:08:02.231356,-30465,2025-11-07 17:08:02.932474538
2025-11-07 17:08:02.231356,-8,2025-11-07 17:08:02.940166846
2025-11-07 17:08:02.231356,-1883,2025-11-07 17:08:02.947859154
2025-11-07 17:08:02.231356,-2305,2025-11-07 17:08:02.955551462
2025-11-07 17:08:02.231356,-8,2025-11-07 17:08:02.963243769
2025-11-07 17:08:02.231356,-1914,2025-11-07 17:08:02.970936077
2025-11-07 17:08:02.231356,14079,2025-11-07 17:08:02.978628385
2025-11-07 17:08:02.231356,-7,2025-11-07 17:08:02.986320692
2025-11-07 17:08:02.231356,-1783,2025-11-07 17:08:02.994013000
2025-11-07 17:08:02.231356,-513,2025-11-07 17:08:03.001705308
2025-11-07 17:08:02.231356,-8,2025-11-07 17:08:03.009397615
2025-11-07 17:08:02.231356,-1671,2025-11-07 17:08:03.017089923
2025-11-07 17:08:02.231356,-15873,2025-11-07 17:08:03.024782231
2025-11-07 17:08:02.231356,-8,2025-11-07 17:08:03.032474538
2025-11-07 17:08:02.231356,-1774,2025-11-07 17:08:03.040166846
2025-11-07 17:08:02.231356,767,2025-11-07 17:08:03.047859154
2025-11-07 17:08:02.231356,-7,2025-11-07 17:08:03.055551462
2025-11-07 17:08:02.231356,-1921,2025-11-07 17:08:03.063243769
2025-11-07 17:08:02.231356,-2305,2025-11-07 17:08:03.070936077
2025-11-07 17:08:02.231356,-8,2025-11-07 17:08:03.078628385
2025-11-07 17:08:02.231356,-1955,2025-11-07 17:08:03.086320692
2025-11-07 17:08:02.231356,25855,2025-11-07 17:08:03.094013000
2025-11-07 17:08:02.231356,-8,2025-11-07 17:08:03.101705308
2025-11-07 17:08:02.231356,-1905,2025-11-07 17:08:03.109397615
2025-11-07 17:08:02.231356,-5889,2025-11-07 17:08:03.117089923
2025-11-07 17:08:02.231356,-9,2025-11-07 17:08:03.124782231
2025-11-07 17:08:02.231356,-1950,2025-11-07 17:08:03.132474538
2025-11-07 17:08:02.231356,10751,2025-11-07 17:08:03.140166846
2025-11-07 17:08:02.231356,-8,2025-11-07 17:08:03.147859154
2025-11-07 17:08:02.231356,-2012,2025-11-07 17:08:03.155551462
2025-11-07 17:08:02.231356,-12033,2025-11-07 17:08:03.163243769
2025-11-07 17:08:02.231356,-8,2025-11-07 17:08:03.170936077
2025-11-07 17:08:02.231356,-1936,2025-11-07 17:08:03.178628385
2025-11-07 17:08:02.231356,-5889,2025-11-07 17:08:03.186320692
2025-11-07 17:08:02.231356,-8,2025-11-07 17:08:03.194013000
2025-11-07 17:08:02.231356,-1774,2025-11-07 17:08:03.201705308
2025-11-07 17:08:02.231356,-8961,2025-11-07 17:08:03.209397615
2025-11-07 17:08:02.231356,-8,2025-11-07 17:08:03.217089923
2025-11-07 17:08:02.231356,-1702,2025-11-07 17:08:03.224782230
2025-11-07 17:08:02.231356,-6657,2025-11-07 17:08:03.232474538
2025-11-07 17:08:02.231356,-8,2025-11-07 17:08:03.240166846
2025-11-07 17:08:02.231356,-1771,2025-11-07 17:08:03.247859154
2025-11-07 17:08:02.231356,20223,2025-11-07 17:08:03.255551462
2025-11-07 17:08:02.231356,-7,2025-11-07 17:08:03.263243769
2025-11-07 17:08:02.231356,-1847,2025-11-07 17:08:03.270936077
2025-11-07 17:08:02.231356,17151,2025-11-07 17:08:03.278628385
2025-11-07 17:08:02.231356,-7,2025-11-07 17:08:03.286320692
2025-11-07 17:08:02.231356,-1809,2025-11-07 17:08:03.294013000
2025-11-07 17:08:02.231356,-17665,2025-11-07 17:08:03.301705308
2025-11-07 17:08:02.231356,-8,2025-11-07 17:08:03.309397615
2025-11-07 17:08:02.231356,-1759,2025-11-07 17:08:03.317089923
2025-11-07 17:08:02.231356,-27393,2025-11-07 17:08:03.324782231
2025-11-07 17:08:02.231356,-8,2025-11-07 17:08:03.332474538
2025-11-07 17:08:02.231356,-1824,2025-11-07 17:08:03.340166846
2025-11-07 17:08:02.231356,-3585,2025-11-07 17:08:03.347859154
2025-11-07 17:08:02.231356,-8,2025-11-07 17:08:03.355551462
2025-11-07 17:08:02.231356,-1864,2025-11-07 17:08:03.363243769
2025-11-07 17:08:02.773808,-1714,2025-11-07 17:08:03.370936077
2025-11-07 17:08:02.773808,-1793,2025-11-07 17:08:03.378628385
2025-11-07 17:08:02.773808,-8,2025-11-07 17:08:03.386320692
2025-11-07 17:08:02.773808,-1740,2025-11-07 17:08:03.394013000
2025-11-07 17:08:02.773808,-29441,2025-11-07 17:08:03.401705308
2025-11-07 17:08:02.773808,-7,2025-11-07 17:08:03.409397615
2025-11-07 17:08:02.773808,-1759,2025-11-07 17:08:03.417089923
2025-11-07 17:08:02.773808,-25089,2025-11-07 17:08:03.424782231
2025-11-07 17:08:02.773808,-7,2025-11-07 17:08:03.432474538
2025-11-07 17:08:02.773808,-1681,2025-11-07 17:08:03.440166846
2025-11-07 17:08:02.773808,20223,2025-11-07 17:08:03.447859154
2025-11-07 17:08:02.773808,-7,2025-11-07 17:08:03.455551462
2025-11-07 17:08:02.773808,-1628,2025-11-07 17:08:03.463243769
2025-11-07 17:08:02.773808,7935,2025-11-07 17:08:03.470936077
2025-11-07 17:08:02.773808,-7,2025-11-07 17:08:03.478628385
2025-11-07 17:08:02.773808,-1681,2025-11-07 17:08:03.486320692
2025-11-07 17:08:02.773808,27647,2025-11-07 17:08:03.494013000
2025-11-07 17:08:02.773808,-7,2025-11-07 17:08:03.501705308
2025-11-07 17:08:02.773808,-1783,2025-11-07 17:08:03.509397615
2025-11-07 17:08:02.773808,-32513,2025-11-07 17:08:03.517089923
2025-11-07 17:08:02.773808,-7,2025-11-07 17:08:03.524782231
2025-11-07 17:08:02.773808,-1757,2025-11-07 17:08:03.532474538
2025-11-07 17:08:02.773808,17919,2025-11-07 17:08:03.540166846
2025-11-07 17:08:02.773808,-7,2025-11-07 17:08:03.547859154
2025-11-07 17:08:02.773808,-1640,2025-11-07 17:08:03.555551462
2025-11-07 17:08:02.773808,15359,2025-11-07 17:08:03.563243769
2025-11-07 17:08:02.773808,-7,2025-11-07 17:08:03.570936077
2025-11-07 17:08:02.773808,-1611,2025-11-07 17:08:03.578628385
2025-11-07 17:08:02.773808,-28161,2025-11-07 17:08:03.586320692
2025-11-07 17:08:02.773808,-7,2025-11-07 17:08:03.594013000
2025-11-07 17:08:02.773808,-1657,2025-11-07 17:08:03.601705308
2025-11-07 17:08:02.773808,-1281,2025-11-07 17:08:03.609397615
2025-11-07 17:08:02.773808,-7,2025-11-07 17:08:03.617089923
2025-11-07 17:08:02.773808,-1638,2025-11-07 17:08:03.624782231
2025-11-07 17:08:02.773808,-2561,2025-11-07 17:08:03.632474538
2025-11-07 17:08:02.773808,-7,2025-11-07 17:08:03.640166846
2025-11-07 17:08:02.773808,-1530,2025-11-07 17:08:03.647859154
2025-11-07 17:08:02.773808,-15873,2025-11-07 17:08:03.655551462
2025-11-07 17:08:02.773808,-7,2025-11-07 17:08:03.663243769
2025-11-07 17:08:02.773808,-1475,2025-11-07 17:08:03.670936077
2025-11-07 17:08:02.773808,-6145,2025-11-07 17:08:03.678628385
2025-11-07 17:08:02.773808,-7,2025-11-07 17:08:03.686320692
2025-11-07 17:08:02.773808,-1549,2025-11-07 17:08:03.694013000
2025-11-07 17:08:02.773808,7167,2025-11-07 17:08:03.701705308
2025-11-07 17:08:02.773808,-6,2025-11-07 17:08:03.709397615
2025-11-07 17:08:02.773808,-1638,2025-11-07 17:08:03.717089923
2025-11-07 17:08:02.773808,-2561,2025-11-07 17:08:03.724782231
2025-11-07 17:08:02.773808,-7,2025-11-07 17:08:03.732474538
2025-11-07 17:08:02.773808,-1533,2025-11-07 17:08:03.740166846
2025-11-07 17:08:02.773808,18175,2025-11-07 17:08:03.747859154
2025-11-07 17:08:02.773808,-6,2025-11-07 17:08:03.755551462
2025-11-07 17:08:02.773808,-1361,2025-11-07 17:08:03.763243769
2025-11-07 17:08:02.773808,-5633,2025-11-07 17:08:03.770936077
2025-11-07 17:08:02.773808,-7,2025-11-07 17:08:03.778628385
2025-11-07 17:08:02.773808,-1547,2025-11-07 17:08:03.786320692
2025-11-07 17:08:02.773808,4095,2025-11-07 17:08:03.794013000
2025-11-07 17:08:02.773808,-6,2025-11-07 17:08:03.801705308
2025-11-07 17:08:02.773808,-1580,2025-11-07 17:08:03.809397615
2025-11-07 17:08:02.773808,18175,2025-11-07 17:08:03.817089923
2025-11-07 17:08:02.773808,-6,2025-11-07 17:08:03.824782231
2025-11-07 17:08:02.773808,-1528,2025-11-07 17:08:03.832474538
2025-11-07 17:08:02.773808,12799,2025-11-07 17:08:03.840166846
2025-11-07 17:08:02.773808,-6,2025-11-07 17:08:03.847859154
2025-11-07 17:08:02.773808,-1418,2025-11-07 17:08:03.855551462
2025-11-07 17:08:02.773808,6655,2025-11-07 17:08:03.863243769
2025-11-07 17:08:02.773808,-6,2025-11-07 17:08:03.870936077
2025-11-07 17:08:02.773808,-1397,2025-11-07 17:08:03.878628385
2025-11-07 17:08:02.773808,21247,2025-11-07 17:08:03.886320692
2025-11-07 17:08:02.773808,-6,2025-11-07 17:08:03.894013000
2025-11-07 17:08:02.773808,-1523,2025-11-07 17:08:03.901705308
2025-11-07 17:08:02.773808,19455,2025-11-07 17:08:03.909397615
2025-11-07 17:08:02.773808,-6,2025-11-07 17:08:03.917089923
2025-11-07 17:08:02.773808,-1616,2025-11-07 17:08:03.924782231
2025-11-07 17:08:02.773808,-9217,2025-11-07 17:08:03.932474538
2025-11-07 17:08:02.773808,-7,2025-11-07 17:08:03.940166846
2025-11-07 17:08:02.773808,-1571,2025-11-07 17:08:03.947859154
2025-11-07 17:08:02.773808,31743,2025-11-07 17:08:03.955551462
2025-11-07 17:08:02.773808,-7,2025-11-07 17:08:03.963243769
2025-11-07 17:08:02.773808,-1545,2025-11-07 17:08:03.970936077
2025-11-07 17:08:02.773808,-23809,2025-11-07 17:08:03.978628385
2025-11-07 17:08:02.773808,-7,2025-11-07 17:08:03.986320692
2025-11-07 17:08:02.773808,-1616,2025-11-07 17:08:03.994013000
2025-11-07 17:08:02.773808,2815,2025-11-07 17:08:04.001705308
2025-11-07 17:08:02.773808,-6,2025-11-07 17:08:04.009397615
2025-11-07 17:08:02.773808,-1626,2025-11-07 17:08:04.017089923
2025-11-07 17:08:02.773808,6655,2025-11-07 17:08:04.024782231
2025-11-07 17:08:02.773808,-6,2025-11-07 17:08:04.032474538
2025-11-07 17:08:02.773808,-1518,2025-11-07 17:08:04.040166846
2025-11-07 17:08:02.773808,-2049,2025-11-07 17:08:04.047859154
2025-11-07 17:08:02.773808,-7,2025-11-07 17:08:04.055551462
2025-11-07 17:08:02.773808,-1418,2025-11-07 17:08:04.063243769
2025-11-07 17:08:02.773808,5887,2025-11-07 17:08:04.070936077
2025-11-07 17:08:02.773808,-6,2025-11-07 17:08:04.078628385
2025-11-07 17:08:02.773808,-1456,2025-11-07 17:08:04.086320692
2025-11-07 17:08:02.773808,25599,2025-11-07 17:08:04.094013000
2025-11-07 17:08:02.773808,-6,2025-11-07 17:08:04.101705308
2025-11-07 17:08:02.773808,-1518,2025-11-07 17:08:04.109397615
2025-11-07 17:08:02.773808,-29697,2025-11-07 17:08:04.117089923
2025-11-07 17:08:02.773808,-6,2025-11-07 17:08:04.124782231
2025-11-07 17:08:02.773808,-1514,2025-11-07 17:08:04.132474538
2025-11-07 17:08:02.773808,1023,2025-11-07 17:08:04.140166846
2025-11-07 17:08:02.773808,-6,2025-11-07 17:08:04.147859154
2025-11-07 17:08:02.773808,-1459,2025-11-07 17:08:04.155551462
2025-11-07 17:08:02.773808,-16641,2025-11-07 17:08:04.163243769
2025-11-07 17:08:02.773808,-7,2025-11-07 17:08:04.170936077
2025-11-07 17:08:02.773808,-1516,2025-11-07 17:08:04.178628385
2025-11-07 17:08:02.773808,-5121,2025-11-07 17:08:04.186320692
2025-11-07 17:08:02.773808,-7,2025-11-07 17:08:04.194013000
2025-11-07 17:08:02.773808,-1640,2025-11-07 17:08:04.201705308
2025-11-07 17:08:03.358200,-1535,2025-11-07 17:08:04.209397615
2025-11-07 17:08:03.358200,-28929,2025-11-07 17:08:04.217089923
2025-11-07 17:08:03.358200,-7,2025-11-07 17:08:04.224782230
2025-11-07 17:08:03.358200,-1604,2025-11-07 17:08:04.232474538
2025-11-07 17:08:03.358200,-6913,2025-11-07 17:08:04.240166846
2025-11-07 17:08:03.358200,-7,2025-11-07 17:08:04.247859154
2025-11-07 17:08:03.358200,-1647,2025-11-07 17:08:04.255551462
2025-11-07 17:08:03.358200,-1281,2025-11-07 17:08:04.263243769
2025-11-07 17:08:03.358200,-7,2025-11-07 17:08:04.270936077
2025-11-07 17:08:03.358200,-1633,2025-11-07 17:08:04.278628385
2025-11-07 17:08:03.358200,-25089,2025-11-07 17:08:04.286320692
2025-11-07 17:08:03.358200,-7,2025-11-07 17:08:04.294013000
2025-11-07 17:08:03.358200,-1571,2025-11-07 17:08:04.301705308
2025-11-07 17:08:03.358200,20735,2025-11-07 17:08:04.309397615
2025-11-07 17:08:03.358200,-7,2025-11-07 17:08:04.317089923
2025-11-07 17:08:03.358200,-1635,2025-11-07 17:08:04.324782231
2025-11-07 17:08:03.358200,32511,2025-11-07 17:08:04.332474538
2025-11-07 17:08:03.358200,-7,2025-11-07 17:08:04.340166846
2025-11-07 17:08:03.358200,-1716,2025-11-07 17:08:04.347859154
2025-11-07 17:08:03.358200,-16641,2025-11-07 17:08:04.355551462
2025-11-07 17:08:03.358200,-7,2025-11-07 17:08:04.363243769
2025-11-07 17:08:03.358200,-1704,2025-11-07 17:08:04.370936077
2025-11-07 17:08:03.358200,-28929,2025-11-07 17:08:04.378628385
2025-11-07 17:08:03.358200,-7,2025-11-07 17:08:04.386320692
2025-11-07 17:08:03.358200,-1616,2025-11-07 17:08:04.394013000
2025-11-07 17:08:03.358200,20735,2025-11-07 17:08:04.401705308
2025-11-07 17:08:03.358200,-7,2025-11-07 17:08:04.409397615
2025-11-07 17:08:03.358200,-1597,2025-11-07 17:08:04.417089923
2025-11-07 17:08:03.358200,31231,2025-11-07 17:08:04.424782231
2025-11-07 17:08:03.358200,-7,2025-11-07 17:08:04.432474538
2025-11-07 17:08:03.358200,-1681,2025-11-07 17:08:04.440166846
2025-11-07 17:08:03.358200,-16641,2025-11-07 17:08:04.447859154
2025-11-07 17:08:03.358200,-7,2025-11-07 17:08:04.455551462
2025-11-07 17:08:03.358200,-1714,2025-11-07 17:08:04.463243769
2025-11-07 17:08:03.358200,-22017,2025-11-07 17:08:04.470936077
2025-11-07 17:08:03.358200,-7,2025-11-07 17:08:04.478628385
2025-11-07 17:08:03.358200,-1638,2025-11-07 17:08:04.486320692
2025-11-07 17:08:03.358200,28159,2025-11-07 17:08:04.494013000
2025-11-07 17:08:03.358200,-7,2025-11-07 17:08:04.501705308
2025-11-07 17:08:03.358200,-1573,2025-11-07 17:08:04.509397615
2025-11-07 17:08:03.358200,29439,2025-11-07 17:08:04.517089923
2025-11-07 17:08:03.358200,-7,2025-11-07 17:08:04.524782231
2025-11-07 17:08:03.358200,-1621,2025-11-07 17:08:04.532474538
2025-11-07 17:08:03.358200,-11777,2025-11-07 17:08:04.540166846
2025-11-07 17:08:03.358200,-7,2025-11-07 17:08:04.547859154
2025-11-07 17:08:03.358200,-1671,2025-11-07 17:08:04.555551462
2025-11-07 17:08:03.358200,-5121,2025-11-07 17:08:04.563243769
2025-11-07 17:08:03.358200,-7,2025-11-07 17:08:04.570936077
2025-11-07 17:08:03.358200,-1633,2025-11-07 17:08:04.578628385
2025-11-07 17:08:03.358200,-22017,2025-11-07 17:08:04.586320692
2025-11-07 17:08:03.358200,-7,2025-11-07 17:08:04.594013000
2025-11-07 17:08:03.358200,-1466,2025-11-07 17:08:04.601705308
2025-11-07 17:08:03.358200,25599,2025-11-07 17:08:04.609397615
2025-11-07 17:08:03.358200,-6,2025-11-07 17:08:04.617089923
2025-11-07 17:08:03.358200,-1216,2025-11-07 17:08:04.624782231
2025-11-07 17:08:03.358200,12543,2025-11-07 17:08:04.632474538
2025-11-07 17:08:03.358200,-5,2025-11-07 17:08:04.640166846
2025-11-07 17:08:03.358200,-1342,2025-11-07 17:08:04.647859154
2025-11-07 17:08:03.358200,16639,2025-11-07 17:08:04.655551462
2025-11-07 17:08:03.358200,-5,2025-11-07 17:08:04.663243769
2025-11-07 17:08:03.358200,-1299,2025-11-07 17:08:04.670936077
2025-11-07 17:08:03.358200,1535,2025-11-07 17:08:04.678628385
2025-11-07 17:08:03.358200,-5,2025-11-07 17:08:04.686320692
2025-11-07 17:08:03.358200,-1235,2025-11-07 17:08:04.694013000
2025-11-07 17:08:03.358200,-10753,2025-11-07 17:08:04.701705308
2025-11-07 17:08:03.358200,-6,2025-11-07 17:08:04.709397615
2025-11-07 17:08:03.358200,-1232,2025-11-07 17:08:04.717089923
2025-11-07 17:08:03.358200,-14337,2025-11-07 17:08:04.724782231
2025-11-07 17:08:03.358200,-6,2025-11-07 17:08:04.732474538
2025-11-07 17:08:03.358200,-1356,2025-11-07 17:08:04.740166846
2025-11-07 17:08:03.358200,3839,2025-11-07 17:08:04.747859154
2025-11-07 17:08:03.358200,-5,2025-11-07 17:08:04.755551462
2025-11-07 17:08:03.358200,-1411,2025-11-07 17:08:04.763243769
2025-11-07 17:08:03.358200,-17409,2025-11-07 17:08:04.770936077
2025-11-07 17:08:03.358200,-6,2025-11-07 17:08:04.778628385
2025-11-07 17:08:03.358200,-1366,2025-11-07 17:08:04.786320692
2025-11-07 17:08:03.358200,22527,2025-11-07 17:08:04.794013000
2025-11-07 17:08:03.358200,-6,2025-11-07 17:08:04.801705308
2025-11-07 17:08:03.358200,-1368,2025-11-07 17:08:04.809397615
2025-11-07 17:08:03.358200,13823,2025-11-07 17:08:04.817089923
2025-11-07 17:08:03.358200,-6,2025-11-07 17:08:04.824782231
2025-11-07 17:08:03.358200,-1440,2025-11-07 17:08:04.832474538
2025-11-07 17:08:03.358200,-30977,2025-11-07 17:08:04.840166846
2025-11-07 17:08:03.358200,-6,2025-11-07 17:08:04.847859154
2025-11-07 17:08:03.358200,-1518,2025-11-07 17:08:04.855551462
2025-11-07 17:08:03.358200,-32001,2025-11-07 17:08:04.863243769
2025-11-07 17:08:03.358200,-6,2025-11-07 17:08:04.870936077
2025-11-07 17:08:03.358200,-1475,2025-11-07 17:08:04.878628385
2025-11-07 17:08:03.358200,6655,2025-11-07 17:08:04.886320692
2025-11-07 17:08:03.358200,-6,2025-11-07 17:08:04.894013000
2025-11-07 17:08:03.358200,-1421,2025-11-07 17:08:04.901705308
2025-11-07 17:08:03.358200,2303,2025-11-07 17:08:04.909397615
2025-11-07 17:08:03.358200,-6,2025-11-07 17:08:04.917089923
2025-11-07 17:08:03.358200,-1444,2025-11-07 17:08:04.924782231
2025-11-07 17:08:03.358200,22527,2025-11-07 17:08:04.932474538
2025-11-07 17:08:03.358200,-6,2025-11-07 17:08:04.940166846
2025-11-07 17:08:03.358200,-1518,2025-11-07 17:08:04.947859154
2025-11-07 17:08:03.358200,-32001,2025-11-07 17:08:04.955551462
2025-11-07 17:08:03.358200,-6,2025-11-07 17:08:04.963243769
2025-11-07 17:08:03.358200,-1502,2025-11-07 17:08:04.970936077
2025-11-07 17:08:03.358200,16895,2025-11-07 17:08:04.978628385
2025-11-07 17:08:03.358200,-6,2025-11-07 17:08:04.986320692
2025-11-07 17:08:03.358200,-1425,2025-11-07 17:08:04.994013000
2025-11-07 17:08:03.358200,5375,2025-11-07 17:08:05.001705308
2025-11-07 17:08:03.358200,-6,2025-11-07 17:08:05.009397615
2025-11-07 17:08:03.358200,-1390,2025-11-07 17:08:05.017089923
2025-11-07 17:08:03.358200,27391,2025-11-07 17:08:05.024782231
2025-11-07 17:08:03.358200,-6,2025-11-07 17:08:05.032474538
2025-11-07 17:08:03.358200,-1423,2025-11-07 17:08:05.040166846
2025-11-07 17:08:03.941391,-1306,2025-11-07 17:08:05.047859154
2025-11-07 17:08:03.941391,-28417,2025-11-07 17:08:05.055551462
2025-11-07 17:08:03.941391,-6,2025-11-07 17:08:05.063243769
2025-11-07 17:08:03.941391,-1278,2025-11-07 17:08:05.070936077
2025-11-07 17:08:03.941391,6911,2025-11-07 17:08:05.078628385
2025-11-07 17:08:03.941391,-5,2025-11-07 17:08:05.086320692
2025-11-07 17:08:03.941391,-1285,2025-11-07 17:08:05.094013000
2025-11-07 17:08:03.941391,-27393,2025-11-07 17:08:05.101705308
2025-11-07 17:08:03.941391,-5,2025-11-07 17:08:05.109397615
2025-11-07 17:08:03.941391,-1208,2025-11-07 17:08:05.117089923
2025-11-07 17:08:03.941391,-32257,2025-11-07 17:08:05.124782231
2025-11-07 17:08:03.941391,-5,2025-11-07 17:08:05.132474538
2025-11-07 17:08:03.941391,-1111,2025-11-07 17:08:05.140166846
2025-11-07 17:08:03.941391,9471,2025-11-07 17:08:05.147859154
2025-11-07 17:08:03.941391,-5,2025-11-07 17:08:05.155551462
2025-11-07 17:08:03.941391,-1111,2025-11-07 17:08:05.163243769
2025-11-07 17:08:03.941391,31999,2025-11-07 17:08:05.170936077
2025-11-07 17:08:03.941391,-5,2025-11-07 17:08:05.178628385
2025-11-07 17:08:03.941391,-1196,2025-11-07 17:08:05.186320692
2025-11-07 17:08:03.941391,-17153,2025-11-07 17:08:05.194013000
2025-11-07 17:08:03.941391,-5,2025-11-07 17:08:05.201705308
2025-11-07 17:08:03.941391,-1173,2025-11-07 17:08:05.209397615
2025-11-07 17:08:03.941391,-9217,2025-11-07 17:08:05.217089923
2025-11-07 17:08:03.941391,-5,2025-11-07 17:08:05.224782230
2025-11-07 17:08:03.941391,-1058,2025-11-07 17:08:05.232474538
2025-11-07 17:08:03.941391,-28673,2025-11-07 17:08:05.240166846
2025-11-07 17:08:03.941391,-5,2025-11-07 17:08:05.247859154
2025-11-07 17:08:03.941391,-1018,2025-11-07 17:08:05.255551462
2025-11-07 17:08:03.941391,-25601,2025-11-07 17:08:05.263243769
2025-11-07 17:08:03.941391,-5,2025-11-07 17:08:05.270936077
2025-11-07 17:08:03.941391,-1111,2025-11-07 17:08:05.278628385
2025-11-07 17:08:03.941391,-11009,2025-11-07 17:08:05.286320692
2025-11-07 17:08:03.941391,-5,2025-11-07 17:08:05.294013000
2025-11-07 17:08:03.941391,-1180,2025-11-07 17:08:05.301705308
2025-11-07 17:08:03.941391,-10241,2025-11-07 17:08:05.309397615
2025-11-07 17:08:03.941391,-5,2025-11-07 17:08:05.317089923
2025-11-07 17:08:03.941391,-1130,2025-11-07 17:08:05.324782231
2025-11-07 17:08:03.941391,31487,2025-11-07 17:08:05.332474538
2025-11-07 17:08:03.941391,-5,2025-11-07 17:08:05.340166846
2025-11-07 17:08:03.941391,-1063,2025-11-07 17:08:05.347859154
2025-11-07 17:08:03.941391,18687,2025-11-07 17:08:05.355551462
2025-11-07 17:08:03.941391,-5,2025-11-07 17:08:05.363243769
2025-11-07 17:08:03.941391,-1151,2025-11-07 17:08:05.370936077
2025-11-07 17:08:03.941391,29695,2025-11-07 17:08:05.378628385
2025-11-07 17:08:03.941391,-5,2025-11-07 17:08:05.386320692
2025-11-07 17:08:03.941391,-1270,2025-11-07 17:08:05.394013000
2025-11-07 17:08:03.941391,28415,2025-11-07 17:08:05.401705308
2025-11-07 17:08:03.941391,-5,2025-11-07 17:08:05.409397615
2025-11-07 17:08:03.941391,-1311,2025-11-07 17:08:05.417089923
2025-11-07 17:08:03.941391,-11265,2025-11-07 17:08:05.424782231
2025-11-07 17:08:03.941391,-6,2025-11-07 17:08:05.432474538
2025-11-07 17:08:03.941391,-1268,2025-11-07 17:08:05.440166846
2025-11-07 17:08:03.941391,-9985,2025-11-07 17:08:05.447859154
2025-11-07 17:08:03.941391,-6,2025-11-07 17:08:05.455551462
2025-11-07 17:08:03.941391,-1082,2025-11-07 17:08:05.463243769
2025-11-07 17:08:03.941391,-20737,2025-11-07 17:08:05.470936077
2025-11-07 17:08:03.941391,-5,2025-11-07 17:08:05.478628385
2025-11-07 17:08:03.941391,-1227,2025-11-07 17:08:05.486320692
2025-11-07 17:08:03.941391,30719,2025-11-07 17:08:05.494013000
2025-11-07 17:08:03.941391,-5,2025-11-07 17:08:05.501705308
2025-11-07 17:08:03.941391,-1261,2025-11-07 17:08:05.509397615
2025-11-07 17:08:03.941391,24575,2025-11-07 17:08:05.517089923
2025-11-07 17:08:03.941391,-5,2025-11-07 17:08:05.524782231
2025-11-07 17:08:03.941391,-1177,2025-11-07 17:08:05.532474538
2025-11-07 17:08:03.941391,11775,2025-11-07 17:08:05.540166846
2025-11-07 17:08:03.941391,-5,2025-11-07 17:08:05.547859154
2025-11-07 17:08:03.941391,-1089,2025-11-07 17:08:05.555551462
2025-11-07 17:08:03.941391,20479,2025-11-07 17:08:05.563243769
2025-11-07 17:08:03.941391,-5,2025-11-07 17:08:05.570936077
2025-11-07 17:08:03.941391,-1187,2025-11-07 17:08:05.578628385
2025-11-07 17:08:03.941391,-19457,2025-11-07 17:08:05.586320692
2025-11-07 17:08:03.941391,-5,2025-11-07 17:08:05.594013000
2025-11-07 17:08:03.941391,-1192,2025-11-07 17:08:05.601705308
2025-11-07 17:08:03.941391,-9217,2025-11-07 17:08:05.609397615
2025-11-07 17:08:03.941391,-5,2025-11-07 17:08:05.617089923
2025-11-07 17:08:03.941391,-1094,2025-11-07 17:08:05.624782231
2025-11-07 17:08:03.941391,-22017,2025-11-07 17:08:05.632474538
2025-11-07 17:08:03.941391,-5,2025-11-07 17:08:05.640166846
2025-11-07 17:08:03.941391,-980,2025-11-07 17:08:05.647859154
2025-11-07 17:08:03.941391,-15873,2025-11-07 17:08:05.655551462
2025-11-07 17:08:03.941391,-5,2025-11-07 17:08:05.663243769
2025-11-07 17:08:03.941391,-1001,2025-11-07 17:08:05.670936077
2025-11-07 17:08:03.941391,7423,2025-11-07 17:08:05.678628385
2025-11-07 17:08:03.941391,-4,2025-11-07 17:08:05.686320692
2025-11-07 17:08:03.941391,-1103,2025-11-07 17:08:05.694013000
2025-11-07 17:08:03.941391,12287,2025-11-07 17:08:05.701705308
2025-11-07 17:08:03.941391,-4,2025-11-07 17:08:05.709397615
2025-11-07 17:08:03.941391,-1065,2025-11-07 17:08:05.717089923
2025-11-07 17:08:03.941391,-6657,2025-11-07 17:08:05.724782231
2025-11-07 17:08:03.941391,-5,2025-11-07 17:08:05.732474538
2025-11-07 17:08:03.941391,-991,2025-11-07 17:08:05.740166846
2025-11-07 17:08:03.941391,-26881,2025-11-07 17:08:05.747859154
2025-11-07 17:08:03.941391,-5,2025-11-07 17:08:05.755551462
2025-11-07 17:08:03.941391,-1027,2025-11-07 17:08:05.763243769
2025-11-07 17:08:03.941391,-11009,2025-11-07 17:08:05.770936077
2025-11-07 17:08:03.941391,-5,2025-11-07 17:08:05.778628385
2025-11-07 17:08:03.941391,-1101,2025-11-07 17:08:05.786320692
2025-11-07 17:08:03.941391,18943,2025-11-07 17:08:05.794013000
2025-11-07 17:08:03.941391,-4,2025-11-07 17:08:05.801705308
2025-11-07 17:08:03.941391,-1046,2025-11-07 17:08:05.809397615
2025-11-07 17:08:03.941391,18943,2025-11-07 17:08:05.817089923
2025-11-07 17:08:03.941391,-4,2025-11-07 17:08:05.824782231
2025-11-07 17:08:03.941391,-891,2025-11-07 17:08:05.832474538
2025-11-07 17:08:03.941391,15871,2025-11-07 17:08:05.840166846
2025-11-07 17:08:03.941391,-4,2025-11-07 17:08:05.847859154
2025-11-07 17:08:03.941391,-801,2025-11-07 17:08:05.855551462
2025-11-07 17:08:03.941391,-24577,2025-11-07 17:08:05.863243769
2025-11-07 17:08:03.941391,-4,2025-11-07 17:08:05.870936077
2025-11-07 17:08:03.941391,-858,2025-11-07 17:08:05.878628385
2025-11-07 17:08:04.483519,-784,2025-11-07 17:08:05.886320692
2025-11-07 17:08:04.483519,24575,2025-11-07 17:08:05.894013000
2025-11-07 17:08:04.483519,-4,2025-11-07 17:08:05.901705308
2025-11-07 17:08:04.483519,-844,2025-11-07 17:08:05.909397615
2025-11-07 17:08:04.483519,-32001,2025-11-07 17:08:05.917089923
2025-11-07 17:08:04.483519,-4,2025-11-07 17:08:05.924782231
2025-11-07 17:08:04.483519,-944,2025-11-07 17:08:05.932474538
2025-11-07 17:08:04.483519,-13057,2025-11-07 17:08:05.940166846
2025-11-07 17:08:04.483519,-4,2025-11-07 17:08:05.947859154
2025-11-07 17:08:04.483519,-965,2025-11-07 17:08:05.955551462
2025-11-07 17:08:04.483519,28671,2025-11-07 17:08:05.963243769
2025-11-07 17:08:04.483519,-4,2025-11-07 17:08:05.970936077
2025-11-07 17:08:04.483519,-872,2025-11-07 17:08:05.978628385
2025-11-07 17:08:04.483519,12287,2025-11-07 17:08:05.986320692
2025-11-07 17:08:04.483519,-4,2025-11-07 17:08:05.994013000
2025-11-07 17:08:04.483519,-834,2025-11-07 17:08:06.001705308
2025-11-07 17:08:04.483519,30463,2025-11-07 17:08:06.009397615
2025-11-07 17:08:04.483519,-4,2025-11-07 17:08:06.017089923
2025-11-07 17:08:04.483519,-939,2025-11-07 17:08:06.024782231
2025-11-07 17:08:04.483519,-25089,2025-11-07 17:08:06.032474538
2025-11-07 17:08:04.483519,-4,2025-11-07 17:08:06.040166846
2025-11-07 17:08:04.483519,-958,2025-11-07 17:08:06.047859154
2025-11-07 17:08:04.483519,-24577,2025-11-07 17:08:06.055551462
2025-11-07 17:08:04.483519,-4,2025-11-07 17:08:06.063243769
2025-11-07 17:08:04.483519,-913,2025-11-07 17:08:06.070936077
2025-11-07 17:08:04.483519,15871,2025-11-07 17:08:06.078628385
2025-11-07 17:08:04.483519,-4,2025-11-07 17:08:06.086320692
2025-11-07 17:08:04.483519,-858,2025-11-07 17:08:06.094013000
2025-11-07 17:08:04.483519,12799,2025-11-07 17:08:06.101705308
2025-11-07 17:08:04.483519,-4,2025-11-07 17:08:06.109397615
2025-11-07 17:08:04.483519,-906,2025-11-07 17:08:06.117089923
2025-11-07 17:08:04.483519,-32001,2025-11-07 17:08:06.124782231
2025-11-07 17:08:04.483519,-4,2025-11-07 17:08:06.132474538
2025-11-07 17:08:04.483519,-996,2025-11-07 17:08:06.140166846
2025-11-07 17:08:04.483519,-24577,2025-11-07 17:08:06.147859154
2025-11-07 17:08:04.483519,-4,2025-11-07 17:08:06.155551462
2025-11-07 17:08:04.483519,-958,2025-11-07 17:08:06.163243769
2025-11-07 17:08:04.483519,15871,2025-11-07 17:08:06.170936077
2025-11-07 17:08:04.483519,-4,2025-11-07 17:08:06.178628385
2025-11-07 17:08:04.483519,-879,2025-11-07 17:08:06.186320692
2025-11-07 17:08:04.483519,4351,2025-11-07 17:08:06.194013000
2025-11-07 17:08:04.483519,-4,2025-11-07 17:08:06.201705308
2025-11-07 17:08:04.483519,-913,2025-11-07 17:08:06.209397615
2025-11-07 17:08:04.483519,17663,2025-11-07 17:08:06.217089923
2025-11-07 17:08:04.483519,-4,2025-11-07 17:08:06.224782230
2025-11-07 17:08:04.483519,-1027,2025-11-07 17:08:06.232474538
2025-11-07 17:08:04.483519,28159,2025-11-07 17:08:06.240166846
2025-11-07 17:08:04.483519,-4,2025-11-07 17:08:06.247859154
2025-11-07 17:08:04.483519,-1051,2025-11-07 17:08:06.255551462
2025-11-07 17:08:04.483519,767,2025-11-07 17:08:06.263243769
2025-11-07 17:08:04.483519,-4,2025-11-07 17:08:06.270936077
2025-11-07 17:08:04.483519,-1015,2025-11-07 17:08:06.278628385
2025-11-07 17:08:04.483519,-22529,2025-11-07 17:08:06.286320692
2025-11-07 17:08:04.483519,-5,2025-11-07 17:08:06.294013000
2025-11-07 17:08:04.483519,-896,2025-11-07 17:08:06.301705308
2025-11-07 17:08:04.483519,-30721,2025-11-07 17:08:06.309397615
2025-11-07 17:08:04.483519,-4,2025-11-07 17:08:06.317089923
2025-11-07 17:08:04.483519,-944,2025-11-07 17:08:06.324782231
2025-11-07 17:08:04.483519,14079,2025-11-07 17:08:06.332474538
2025-11-07 17:08:04.483519,-4,2025-11-07 17:08:06.340166846
2025-11-07 17:08:04.483519,-1125,2025-11-07 17:08:06.347859154
2025-11-07 17:08:04.483519,4863,2025-11-07 17:08:06.355551462
2025-11-07 17:08:04.483519,-4,2025-11-07 17:08:06.363243769
2025-11-07 17:08:04.483519,-1049,2025-11-07 17:08:06.370936077
2025-11-07 17:08:04.483519,-25601,2025-11-07 17:08:06.378628385
2025-11-07 17:08:04.483519,-5,2025-11-07 17:08:06.386320692
2025-11-07 17:08:04.483519,-982,2025-11-07 17:08:06.394013000
2025-11-07 17:08:04.483519,-17665,2025-11-07 17:08:06.401705308
2025-11-07 17:08:04.483519,-5,2025-11-07 17:08:06.409397615
2025-11-07 17:08:04.483519,-1030,2025-11-07 17:08:06.417089923
2025-11-07 17:08:04.483519,17151,2025-11-07 17:08:06.424782231
2025-11-07 17:08:04.483519,-4,2025-11-07 17:08:06.432474538
2025-11-07 17:08:04.483519,-1044,2025-11-07 17:08:06.440166846
2025-11-07 17:08:04.483519,-32513,2025-11-07 17:08:06.447859154
2025-11-07 17:08:04.483519,-4,2025-11-07 17:08:06.455551462
2025-11-07 17:08:04.483519,-958,2025-11-07 17:08:06.463243769
2025-11-07 17:08:04.483519,18431,2025-11-07 17:08:06.470936077
2025-11-07 17:08:04.483519,-4,2025-11-07 17:08:06.478628385
2025-11-07 17:08:04.483519,-841,2025-11-07 17:08:06.486320692
2025-11-07 17:08:04.483519,15871,2025-11-07 17:08:06.494013000
2025-11-07 17:08:04.483519,-4,2025-11-07 17:08:06.501705308
2025-11-07 17:08:04.483519,-865,2025-11-07 17:08:06.509397615
2025-11-07 17:08:04.483519,-28929,2025-11-07 17:08:06.517089923
2025-11-07 17:08:04.483519,-4,2025-11-07 17:08:06.524782231
2025-11-07 17:08:04.483519,-953,2025-11-07 17:08:06.532474538
2025-11-07 17:08:04.483519,-20993,2025-11-07 17:08:06.540166846
2025-11-07 17:08:04.483519,-4,2025-11-07 17:08:06.547859154
2025-11-07 17:08:04.483519,-987,2025-11-07 17:08:06.555551462
2025-11-07 17:08:04.483519,20223,2025-11-07 17:08:06.563243769
2025-11-07 17:08:04.483519,-4,2025-11-07 17:08:06.570936077
2025-11-07 17:08:04.483519,-922,2025-11-07 17:08:06.578628385
2025-11-07 17:08:04.483519,-6145,2025-11-07 17:08:06.586320692
2025-11-07 17:08:04.483519,-5,2025-11-07 17:08:06.594013000
2025-11-07 17:08:04.483519,-915,2025-11-07 17:08:06.601705308
2025-11-07 17:08:04.483519,7935,2025-11-07 17:08:06.609397615
2025-11-07 17:08:04.483519,-4,2025-11-07 17:08:06.617089923
2025-11-07 17:08:04.483519,-1018,2025-11-07 17:08:06.624782231
2025-11-07 17:08:04.483519,27391,2025-11-07 17:08:06.632474538
2025-11-07 17:08:04.483519,-4,2025-11-07 17:08:06.640166846
2025-11-07 17:08:04.483519,-1053,2025-11-07 17:08:06.647859154
2025-11-07 17:08:04.483519,16639,2025-11-07 17:08:06.655551462
2025-11-07 17:08:04.483519,-4,2025-11-07 17:08:06.663243769
2025-11-07 17:08:04.483519,-987,2025-11-07 17:08:06.670936077
2025-11-07 17:08:04.483519,-12801,2025-11-07 17:08:06.678628385
2025-11-07 17:08:04.483519,-5,2025-11-07 17:08:06.686320692
2025-11-07 17:08:04.483519,-949,2025-11-07 17:08:06.694013000
2025-11-07 17:08:04.483519,-15105,2025-11-07 17:08:06.701705308
2025-11-07 17:08:04.483519,-5,2025-11-07 17:08:06.709397615
2025-11-07 17:08:04.483519,-1046,2025-11-07 17:08:06.717089923
2025-11-07 17:08:05.068464,-982,2025-11-07 17:08:06.724782231
2025-11-07 17:08:05.068464,-22529,2025-11-07 17:08:06.732474538
2025-11-07 17:08:05.068464,-5,2025-11-07 17:08:06.740166846
2025-11-07 17:08:05.068464,-994,2025-11-07 17:08:06.747859154
2025-11-07 17:08:05.068464,-8449,2025-11-07 17:08:06.755551462
2025-11-07 17:08:05.068464,-5,2025-11-07 17:08:06.763243769
2025-11-07 17:08:05.068464,-1070,2025-11-07 17:08:06.770936077
2025-11-07 17:08:05.068464,15871,2025-11-07 17:08:06.778628385
2025-11-07 17:08:05.068464,-4,2025-11-07 17:08:06.786320692
2025-11-07 17:08:05.068464,-1082,2025-11-07 17:08:06.794013000
2025-11-07 17:08:05.068464,19455,2025-11-07 17:08:06.801705308
2025-11-07 17:08:05.068464,-4,2025-11-07 17:08:06.809397615
2025-11-07 17:08:05.068464,-939,2025-11-07 17:08:06.817089923
2025-11-07 17:08:05.068464,-1793,2025-11-07 17:08:06.824782231
2025-11-07 17:08:05.068464,-5,2025-11-07 17:08:06.832474538
2025-11-07 17:08:05.068464,-877,2025-11-07 17:08:06.840166846
2025-11-07 17:08:05.068464,9215,2025-11-07 17:08:06.847859154
2025-11-07 17:08:05.068464,-4,2025-11-07 17:08:06.855551462
2025-11-07 17:08:05.068464,-958,2025-11-07 17:08:06.863243769
2025-11-07 17:08:05.068464,31743,2025-11-07 17:08:06.870936077
2025-11-07 17:08:05.068464,-4,2025-11-07 17:08:06.878628385
2025-11-07 17:08:05.068464,-1044,2025-11-07 17:08:06.886320692
2025-11-07 17:08:05.068464,23807,2025-11-07 17:08:06.894013000
2025-11-07 17:08:05.068464,-4,2025-11-07 17:08:06.901705308
2025-11-07 17:08:05.068464,-1020,2025-11-07 17:08:06.909397615
2025-11-07 17:08:05.068464,-12033,2025-11-07 17:08:06.917089923
2025-11-07 17:08:05.068464,-5,2025-11-07 17:08:06.924782231
2025-11-07 17:08:05.068464,-980,2025-11-07 17:08:06.932474538
2025-11-07 17:08:05.068464,31999,2025-11-07 17:08:06.940166846
2025-11-07 17:08:05.068464,-5,2025-11-07 17:08:06.947859154
2025-11-07 17:08:05.068464,-1101,2025-11-07 17:08:06.955551462
2025-11-07 17:08:05.068464,-26113,2025-11-07 17:08:06.963243769
2025-11-07 17:08:05.068464,-5,2025-11-07 17:08:06.970936077
2025-11-07 17:08:05.068464,-1249,2025-11-07 17:08:06.978628385
2025-11-07 17:08:05.068464,-29185,2025-11-07 17:08:06.986320692
2025-11-07 17:08:05.068464,-5,2025-11-07 17:08:06.994013000
2025-11-07 17:08:05.068464,-1285,2025-11-07 17:08:07.001705308
2025-11-07 17:08:05.068464,-1537,2025-11-07 17:08:07.009397615
2025-11-07 17:08:05.068464,-6,2025-11-07 17:08:07.017089923
2025-11-07 17:08:05.068464,-1249,2025-11-07 17:08:07.024782231
2025-11-07 17:08:05.068464,-31489,2025-11-07 17:08:07.032474538
2025-11-07 17:08:05.068464,-6,2025-11-07 17:08:07.040166846
2025-11-07 17:08:05.068464,-1301,2025-11-07 17:08:07.047859154
2025-11-07 17:08:05.068464,-25857,2025-11-07 17:08:07.055551462
2025-11-07 17:08:05.068464,-6,2025-11-07 17:08:07.063243769
2025-11-07 17:08:05.068464,-1437,2025-11-07 17:08:07.070936077
2025-11-07 17:08:05.068464,-13057,2025-11-07 17:08:07.078628385
2025-11-07 17:08:05.068464,-6,2025-11-07 17:08:07.086320692
2025-11-07 17:08:05.068464,-1471,2025-11-07 17:08:07.094013000
2025-11-07 17:08:05.068464,-26625,2025-11-07 17:08:07.101705308
2025-11-07 17:08:05.068464,-6,2025-11-07 17:08:07.109397615
2025-11-07 17:08:05.068464,-1371,2025-11-07 17:08:07.117089923
2025-11-07 17:08:05.068464,26623,2025-11-07 17:08:07.124782231
2025-11-07 17:08:05.068464,-6,2025-11-07 17:08:07.132474538
2025-11-07 17:08:05.068464,-1211,2025-11-07 17:08:07.140166846
2025-11-07 17:08:05.068464,30719,2025-11-07 17:08:07.147859154
2025-11-07 17:08:05.068464,-5,2025-11-07 17:08:07.155551462
2025-11-07 17:08:05.068464,-1056,2025-11-07 17:08:07.163243769
2025-11-07 17:08:05.068464,-9217,2025-11-07 17:08:07.170936077
2025-11-07 17:08:05.068464,-5,2025-11-07 17:08:07.178628385
2025-11-07 17:08:05.068464,-1247,2025-11-07 17:08:07.186320692
2025-11-07 17:08:05.068464,-18945,2025-11-07 17:08:07.194013000
2025-11-07 17:08:05.068464,-5,2025-11-07 17:08:07.201705308
2025-11-07 17:08:05.068464,-1118,2025-11-07 17:08:07.209397615
2025-11-07 17:08:05.068464,-32257,2025-11-07 17:08:07.217089923
2025-11-07 17:08:05.068464,-5,2025-11-07 17:08:07.224782230
2025-11-07 17:08:05.068464,-1027,2025-11-07 17:08:07.232474538
2025-11-07 17:08:05.068464,-26881,2025-11-07 17:08:07.240166846
2025-11-07 17:08:05.068464,-5,2025-11-07 17:08:07.247859154
2025-11-07 17:08:05.068464,-1042,2025-11-07 17:08:07.255551462
2025-11-07 17:08:05.068464,-1,2025-11-07 17:08:07.263243769
2025-11-07 17:08:05.068464,-5,2025-11-07 17:08:07.270936077
2025-11-07 17:08:05.068464,-1089,2025-11-07 17:08:07.278628385
2025-11-07 17:08:05.068464,18431,2025-11-07 17:08:07.286320692
2025-11-07 17:08:05.068464,-4,2025-11-07 17:08:07.294013000
2025-11-07 17:08:05.068464,-1063,2025-11-07 17:08:07.301705308
2025-11-07 17:08:05.068464,-7169,2025-11-07 17:08:07.309397615
2025-11-07 17:08:05.068464,-5,2025-11-07 17:08:07.317089923
2025-11-07 17:08:05.068464,-1008,2025-11-07 17:08:07.324782231
2025-11-07 17:08:05.068464,-32257,2025-11-07 17:08:07.332474538
2025-11-07 17:08:05.068464,-5,2025-11-07 17:08:07.340166846
2025-11-07 17:08:05.068464,-1056,2025-11-07 17:08:07.347859154
2025-11-07 17:08:05.068464,-24321,2025-11-07 17:08:07.355551462
2025-11-07 17:08:05.068464,-5,2025-11-07 17:08:07.363243769
2025-11-07 17:08:05.068464,-1163,2025-11-07 17:08:07.370936077
2025-11-07 17:08:05.068464,-7169,2025-11-07 17:08:07.378628385
2025-11-07 17:08:05.068464,-5,2025-11-07 17:08:07.386320692
2025-11-07 17:08:05.068464,-1170,2025-11-07 17:08:07.394013000
2025-11-07 17:08:05.068464,-15105,2025-11-07 17:08:07.401705308
2025-11-07 17:08:05.068464,-5,2025-11-07 17:08:07.409397615
2025-11-07 17:08:05.068464,-1075,2025-11-07 17:08:07.417089923
2025-11-07 17:08:05.068464,28415,2025-11-07 17:08:07.424782231
2025-11-07 17:08:05.068464,-5,2025-11-07 17:08:07.432474538
2025-11-07 17:08:05.068464,-1034,2025-11-07 17:08:07.440166846
2025-11-07 17:08:05.068464,-26881,2025-11-07 17:08:07.447859154
2025-11-07 17:08:05.068464,-5,2025-11-07 17:08:07.455551462
2025-11-07 17:08:05.068464,-1113,2025-11-07 17:08:07.463243769
2025-11-07 17:08:05.068464,-1793,2025-11-07 17:08:07.470936077
2025-11-07 17:08:05.068464,-5,2025-11-07 17:08:07.478628385
2025-11-07 17:08:05.068464,-1142,2025-11-07 17:08:07.486320692
2025-11-07 17:08:05.068464,-1793,2025-11-07 17:08:07.494013000
2025-11-07 17:08:05.068464,-5,2025-11-07 17:08:07.501705308
2025-11-07 17:08:05.068464,-1080,2025-11-07 17:08:07.509397615
2025-11-07 17:08:05.068464,-22017,2025-11-07 17:08:07.517089923
2025-11-07 17:08:05.068464,-5,2025-11-07 17:08:07.524782231
2025-11-07 17:08:05.068464,-984,2025-11-07 17:08:07.532474538
2025-11-07 17:08:05.068464,-18945,2025-11-07 17:08:07.540166846
2025-11-07 17:08:05.068464,-5,2025-11-07 17:08:07.547859154
2025-11-07 17:08:05.068464,-1011,2025-11-07 17:08:07.555551462
2025-11-07 17:08:05.608726,-980,2025-11-07 17:08:07.563243769
2025-11-07 17:08:05.608726,-10241,2025-11-07 17:08:07.570936077
2025-11-07 17:08:05.608726,-5,2025-11-07 17:08:07.578628385
2025-11-07 17:08:05.608726,-918,2025-11-07 17:08:07.586320692
2025-11-07 17:08:05.608726,10495,2025-11-07 17:08:07.594013000
2025-11-07 17:08:05.608726,-4,2025-11-07 17:08:07.601705308
2025-11-07 17:08:05.608726,-965,2025-11-07 17:08:07.609397615
2025-11-07 17:08:05.608726,-27137,2025-11-07 17:08:07.617089923
2025-11-07 17:08:05.608726,-4,2025-11-07 17:08:07.624782231
2025-11-07 17:08:05.608726,-991,2025-11-07 17:08:07.632474538
2025-11-07 17:08:05.608726,30463,2025-11-07 17:08:07.640166846
2025-11-07 17:08:05.608726,-4,2025-11-07 17:08:07.647859154
2025-11-07 17:08:05.608726,-949,2025-11-07 17:08:07.655551462
2025-11-07 17:08:05.608726,10495,2025-11-07 17:08:07.663243769
2025-11-07 17:08:05.608726,-4,2025-11-07 17:08:07.670936077
2025-11-07 17:08:05.608726,-853,2025-11-07 17:08:07.678628385
2025-11-07 17:08:05.608726,20735,2025-11-07 17:08:07.686320692
2025-11-07 17:08:05.608726,-4,2025-11-07 17:08:07.694013000
2025-11-07 17:08:05.608726,-889,2025-11-07 17:08:07.701705308
2025-11-07 17:08:05.608726,-27649,2025-11-07 17:08:07.709397615
2025-11-07 17:08:05.608726,-4,2025-11-07 17:08:07.717089923
2025-11-07 17:08:05.608726,-946,2025-11-07 17:08:07.724782231
2025-11-07 17:08:05.608726,-13569,2025-11-07 17:08:07.732474538
2025-11-07 17:08:05.608726,-4,2025-11-07 17:08:07.740166846
2025-11-07 17:08:05.608726,-915,2025-11-07 17:08:07.747859154
2025-11-07 17:08:05.608726,29951,2025-11-07 17:08:07.755551462
2025-11-07 17:08:05.608726,-4,2025-11-07 17:08:07.763243769
2025-11-07 17:08:05.608726,-839,2025-11-07 17:08:07.770936077
2025-11-07 17:08:05.608726,17151,2025-11-07 17:08:07.778628385
2025-11-07 17:08:05.608726,-4,2025-11-07 17:08:07.786320692
2025-11-07 17:08:05.608726,-856,2025-11-07 17:08:07.794013000
2025-11-07 17:08:05.608726,-31233,2025-11-07 17:08:07.801705308
2025-11-07 17:08:05.608726,-4,2025-11-07 17:08:07.809397615
2025-11-07 17:08:05.608726,-956,2025-11-07 17:08:07.817089923
2025-11-07 17:08:05.608726,-25089,2025-11-07 17:08:07.824782231
2025-11-07 17:08:05.608726,-4,2025-11-07 17:08:07.832474538
2025-11-07 17:08:05.608726,-987,2025-11-07 17:08:07.840166846
2025-11-07 17:08:05.608726,19455,2025-11-07 17:08:07.847859154
2025-11-07 17:08:05.608726,-4,2025-11-07 17:08:07.855551462
2025-11-07 17:08:05.608726,-934,2025-11-07 17:08:07.863243769
2025-11-07 17:08:05.608726,3071,2025-11-07 17:08:07.870936077
2025-11-07 17:08:05.608726,-4,2025-11-07 17:08:07.878628385
2025-11-07 17:08:05.608726,-896,2025-11-07 17:08:07.886320692
2025-11-07 17:08:05.608726,12799,2025-11-07 17:08:07.894013000
2025-11-07 17:08:05.608726,-4,2025-11-07 17:08:07.901705308
2025-11-07 17:08:05.608726,-984,2025-11-07 17:08:07.909397615
2025-11-07 17:08:05.608726,23807,2025-11-07 17:08:07.917089923
2025-11-07 17:08:05.608726,-4,2025-11-07 17:08:07.924782231
2025-11-07 17:08:05.608726,-1061,2025-11-07 17:08:07.932474538
2025-11-07 17:08:05.608726,7935,2025-11-07 17:08:07.940166846
2025-11-07 17:08:05.608726,-4,2025-11-07 17:08:07.947859154
2025-11-07 17:08:05.608726,-1065,2025-11-07 17:08:07.955551462
2025-11-07 17:08:05.608726,30207,2025-11-07 17:08:07.963243769
2025-11-07 17:08:05.608726,-5,2025-11-07 17:08:07.970936077
2025-11-07 17:08:05.608726,-1070,2025-11-07 17:08:07.978628385
2025-11-07 17:08:05.608726,-18945,2025-11-07 17:08:07.986320692
2025-11-07 17:08:05.608726,-5,2025-11-07 17:08:07.994013000
2025-11-07 17:08:05.608726,-949,2025-11-07 17:08:08.001705308
2025-11-07 17:08:05.608726,20223,2025-11-07 17:08:08.009397615
2025-11-07 17:08:05.608726,-4,2025-11-07 17:08:08.017089923
2025-11-07 17:08:05.608726,-1161,2025-11-07 17:08:08.024782231
2025-11-07 17:08:05.608726,-24321,2025-11-07 17:08:08.032474538
2025-11-07 17:08:05.608726,-5,2025-11-07 17:08:08.040166846
2025-11-07 17:08:05.608726,-1211,2025-11-07 17:08:08.047859154
2025-11-07 17:08:05.608726,9471,2025-11-07 17:08:08.055551462
2025-11-07 17:08:05.608726,-5,2025-11-07 17:08:08.063243769
2025-11-07 17:08:05.608726,-1189,2025-11-07 17:08:08.070936077
2025-11-07 17:08:05.608726,-5889,2025-11-07 17:08:08.078628385
2025-11-07 17:08:05.608726,-6,2025-11-07 17:08:08.086320692
2025-11-07 17:08:05.608726,-1225,2025-11-07 17:08:08.094013000
2025-11-07 17:08:05.608726,5887,2025-11-07 17:08:08.101705308
2025-11-07 17:08:05.608726,-5,2025-11-07 17:08:08.109397615
2025-11-07 17:08:05.608726,-1306,2025-11-07 17:08:08.117089923
2025-11-07 17:08:05.608726,25343,2025-11-07 17:08:08.124782231
2025-11-07 17:08:05.608726,-5,2025-11-07 17:08:08.132474538
2025-11-07 17:08:05.608726,-1263,2025-11-07 17:08:08.140166846
2025-11-07 17:08:05.608726,22271,2025-11-07 17:08:08.147859154
2025-11-07 17:08:05.608726,-5,2025-11-07 17:08:08.155551462
2025-11-07 17:08:05.608726,-1154,2025-11-07 17:08:08.163243769
2025-11-07 17:08:05.608726,8703,2025-11-07 17:08:08.170936077
2025-11-07 17:08:05.608726,-5,2025-11-07 17:08:08.178628385
2025-11-07 17:08:05.608726,-1113,2025-11-07 17:08:08.186320692
2025-11-07 17:08:05.608726,28927,2025-11-07 17:08:08.194013000
2025-11-07 17:08:05.608726,-5,2025-11-07 17:08:08.201705308
2025-11-07 17:08:05.608726,-1187,2025-11-07 17:08:08.209397615
2025-11-07 17:08:05.608726,-17153,2025-11-07 17:08:08.217089923
2025-11-07 17:08:05.608726,-5,2025-11-07 17:08:08.224782230
2025-11-07 17:08:05.608726,-1154,2025-11-07 17:08:08.232474538
2025-11-07 17:08:05.608726,-513,2025-11-07 17:08:08.240166846
2025-11-07 17:08:05.608726,-5,2025-11-07 17:08:08.247859154
2025-11-07 17:08:05.608726,-1032,2025-11-07 17:08:08.255551462
2025-11-07 17:08:05.608726,-17665,2025-11-07 17:08:08.263243769
2025-11-07 17:08:05.608726,-5,2025-11-07 17:08:08.270936077
2025-11-07 17:08:05.608726,-989,2025-11-07 17:08:08.278628385
2025-11-07 17:08:05.608726,-14593,2025-11-07 17:08:08.286320692
2025-11-07 17:08:05.608726,-5,2025-11-07 17:08:08.294013000
2025-11-07 17:08:05.608726,-1034,2025-11-07 17:08:08.301705308
2025-11-07 17:08:05.608726,10495,2025-11-07 17:08:08.309397615
2025-11-07 17:08:05.608726,-4,2025-11-07 17:08:08.317089923
2025-11-07 17:08:05.608726,-1061,2025-11-07 17:08:08.324782231
2025-11-07 17:08:05.608726,20223,2025-11-07 17:08:08.332474538
2025-11-07 17:08:05.608726,-4,2025-11-07 17:08:08.340166846
2025-11-07 17:08:05.608726,-1018,2025-11-07 17:08:08.347859154
2025-11-07 17:08:05.608726,-1281,2025-11-07 17:08:08.355551462
2025-11-07 17:08:05.608726,-5,2025-11-07 17:08:08.363243769
2025-11-07 17:08:05.608726,-946,2025-11-07 17:08:08.370936077
2025-11-07 17:08:05.608726,-9217,2025-11-07 17:08:08.378628385
2025-11-07 17:08:05.608726,-5,2025-11-07 17:08:08.386320692
2025-11-07 17:08:05.608726,-977,2025-11-07 17:08:08.394013000
2025-11-07 17:08:06.147146,-980,2025-11-07 17:08:08.401705308
2025-11-07 17:08:06.147146,-513,2025-11-07 17:08:08.409397615
2025-11-07 17:08:06.147146,-5,2025-11-07 17:08:08.417089923
2025-11-07 17:08:06.147146,-922,2025-11-07 17:08:08.424782231
2025-11-07 17:08:06.147146,3071,2025-11-07 17:08:08.432474538
2025-11-07 17:08:06.147146,-4,2025-11-07 17:08:08.440166846
2025-11-07 17:08:06.147146,-960,2025-11-07 17:08:08.447859154
2025-11-07 17:08:06.147146,29951,2025-11-07 17:08:08.455551462
2025-11-07 17:08:06.147146,-4,2025-11-07 17:08:08.463243769
2025-11-07 17:08:06.147146,-987,2025-11-07 17:08:08.470936077
2025-11-07 17:08:06.147146,-21505,2025-11-07 17:08:08.478628385
2025-11-07 17:08:06.147146,-4,2025-11-07 17:08:08.486320692
2025-11-07 17:08:06.147146,-884,2025-11-07 17:08:08.494013000
2025-11-07 17:08:06.147146,-31233,2025-11-07 17:08:08.501705308
2025-11-07 17:08:06.147146,-4,2025-11-07 17:08:08.509397615
2025-11-07 17:08:06.147146,-810,2025-11-07 17:08:08.517089923
2025-11-07 17:08:06.147146,-32001,2025-11-07 17:08:08.524782231
2025-11-07 17:08:06.147146,-4,2025-11-07 17:08:08.532474538
2025-11-07 17:08:06.147146,-798,2025-11-07 17:08:08.540166846
2025-11-07 17:08:06.147146,-11265,2025-11-07 17:08:08.547859154
2025-11-07 17:08:06.147146,-4,2025-11-07 17:08:08.555551462
2025-11-07 17:08:06.147146,-867,2025-11-07 17:08:08.563243769
2025-11-07 17:08:06.147146,1535,2025-11-07 17:08:08.570936077
2025-11-07 17:08:06.147146,-3,2025-11-07 17:08:08.578628385
2025-11-07 17:08:06.147146,-863,2025-11-07 17:08:08.586320692
2025-11-07 17:08:06.147146,-18433,2025-11-07 17:08:08.594013000
2025-11-07 17:08:06.147146,-4,2025-11-07 17:08:08.601705308
2025-11-07 17:08:06.147146,-813,2025-11-07 17:08:08.609397615
2025-11-07 17:08:06.147146,28159,2025-11-07 17:08:08.617089923
2025-11-07 17:08:06.147146,-4,2025-11-07 17:08:08.624782231
2025-11-07 17:08:06.147146,-822,2025-11-07 17:08:08.632474538
2025-11-07 17:08:06.147146,-30721,2025-11-07 17:08:08.640166846
2025-11-07 17:08:06.147146,-4,2025-11-07 17:08:08.647859154
2025-11-07 17:08:06.147146,-908,2025-11-07 17:08:08.655551462
2025-11-07 17:08:06.147146,-16129,2025-11-07 17:08:08.663243769
2025-11-07 17:08:06.147146,-4,2025-11-07 17:08:08.670936077
2025-11-07 17:08:06.147146,-949,2025-11-07 17:08:08.678628385
2025-11-07 17:08:06.147146,23295,2025-11-07 17:08:08.686320692
2025-11-07 17:08:06.147146,-4,2025-11-07 17:08:08.694013000
2025-11-07 17:08:06.147146,-1037,2025-11-07 17:08:08.701705308
2025-11-07 17:08:06.147146,-24321,2025-11-07 17:08:08.709397615
2025-11-07 17:08:06.147146,-5,2025-11-07 17:08:08.717089923
2025-11-07 17:08:06.147146,-934,2025-11-07 17:08:08.724782231
2025-11-07 17:08:06.147146,18431,2025-11-07 17:08:08.732474538
2025-11-07 17:08:06.147146,-4,2025-11-07 17:08:08.740166846
2025-11-07 17:08:06.147146,-910,2025-11-07 17:08:08.747859154
2025-11-07 17:08:06.147146,-28161,2025-11-07 17:08:08.755551462
2025-11-07 17:08:06.147146,-4,2025-11-07 17:08:08.763243769
2025-11-07 17:08:06.147146,-991,2025-11-07 17:08:08.770936077
2025-11-07 17:08:06.147146,29439,2025-11-07 17:08:08.778628385
2025-11-07 17:08:06.147146,-4,2025-11-07 17:08:08.786320692
2025-11-07 17:08:06.147146,-972,2025-11-07 17:08:08.794013000
2025-11-07 17:08:06.147146,6655,2025-11-07 17:08:08.801705308
2025-11-07 17:08:06.147146,-4,2025-11-07 17:08:08.809397615
2025-11-07 17:08:06.147146,-927,2025-11-07 17:08:08.817089923
2025-11-07 17:08:06.147146,-8449,2025-11-07 17:08:08.824782231
2025-11-07 17:08:06.147146,-5,2025-11-07 17:08:08.832474538
2025-11-07 17:08:06.147146,-1018,2025-11-07 17:08:08.840166846
2025-11-07 17:08:06.147146,-3073,2025-11-07 17:08:08.847859154
2025-11-07 17:08:06.147146,-5,2025-11-07 17:08:08.855551462
2025-11-07 17:08:06.147146,-1039,2025-11-07 17:08:08.863243769
2025-11-07 17:08:06.147146,-9217,2025-11-07 17:08:08.870936077
2025-11-07 17:08:06.147146,-4,2025-11-07 17:08:08.878628385
2025-11-07 17:08:06.147146,-860,2025-11-07 17:08:08.886320692
2025-11-07 17:08:06.147146,23807,2025-11-07 17:08:08.894013000
2025-11-07 17:08:06.147146,-4,2025-11-07 17:08:08.901705308
2025-11-07 17:08:06.147146,-956,2025-11-07 17:08:08.909397615
2025-11-07 17:08:06.147146,-7937,2025-11-07 17:08:08.917089923
2025-11-07 17:08:06.147146,-5,2025-11-07 17:08:08.924782231
2025-11-07 17:08:06.147146,-944,2025-11-07 17:08:08.932474538
2025-11-07 17:08:06.147146,11519,2025-11-07 17:08:08.940166846
2025-11-07 17:08:06.147146,-4,2025-11-07 17:08:08.947859154
2025-11-07 17:08:06.147146,-991,2025-11-07 17:08:08.955551462
2025-11-07 17:08:06.147146,31231,2025-11-07 17:08:08.963243769
2025-11-07 17:08:06.147146,-4,2025-11-07 17:08:08.970936077
2025-11-07 17:08:06.147146,-1015,2025-11-07 17:08:08.978628385
2025-11-07 17:08:06.147146,21503,2025-11-07 17:08:08.986320692
2025-11-07 17:08:06.147146,-4,2025-11-07 17:08:08.994013000
2025-11-07 17:08:06.147146,-937,2025-11-07 17:08:09.001705308
2025-11-07 17:08:06.147146,2559,2025-11-07 17:08:09.009397615
2025-11-07 17:08:06.147146,-4,2025-11-07 17:08:09.017089923
2025-11-07 17:08:06.147146,-913,2025-11-07 17:08:09.024782231
2025-11-07 17:08:06.147146,4351,2025-11-07 17:08:09.032474538
2025-11-07 17:08:06.147146,-4,2025-11-07 17:08:09.040166846
2025-11-07 17:08:06.147146,-1001,2025-11-07 17:08:09.047859154
2025-11-07 17:08:06.147146,19455,2025-11-07 17:08:09.055551462
2025-11-07 17:08:06.147146,-4,2025-11-07 17:08:09.063243769
2025-11-07 17:08:06.147146,-1049,2025-11-07 17:08:09.070936077
2025-11-07 17:08:06.147146,19455,2025-11-07 17:08:09.078628385
2025-11-07 17:08:06.147146,-4,2025-11-07 17:08:09.086320692
2025-11-07 17:08:06.147146,-980,2025-11-07 17:08:09.094013000
2025-11-07 17:08:06.147146,7935,2025-11-07 17:08:09.101705308
2025-11-07 17:08:06.147146,-4,2025-11-07 17:08:09.109397615
2025-11-07 17:08:06.147146,-884,2025-11-07 17:08:09.117089923
2025-11-07 17:08:06.147146,16639,2025-11-07 17:08:09.124782231
2025-11-07 17:08:06.147146,-4,2025-11-07 17:08:09.132474538
2025-11-07 17:08:06.147146,-867,2025-11-07 17:08:09.140166846
2025-11-07 17:08:06.147146,-18433,2025-11-07 17:08:09.147859154
2025-11-07 17:08:06.147146,-4,2025-11-07 17:08:09.155551462
2025-11-07 17:08:06.147146,-887,2025-11-07 17:08:09.163243769
2025-11-07 17:08:06.147146,6655,2025-11-07 17:08:09.170936077
2025-11-07 17:08:06.147146,-3,2025-11-07 17:08:09.178628385
2025-11-07 17:08:06.147146,-798,2025-11-07 17:08:09.186320692
2025-11-07 17:08:06.147146,2815,2025-11-07 17:08:09.194013000
2025-11-07 17:08:06.147146,-3,2025-11-07 17:08:09.201705308
2025-11-07 17:08:06.147146,-681,2025-11-07 17:08:09.209397615
2025-11-07 17:08:06.147146,-257,2025-11-07 17:08:09.217089923
2025-11-07 17:08:06.147146,-4,2025-11-07 17:08:09.224782230
2025-11-07 17:08:06.147146,-658,2025-11-07 17:08:09.232474538
2025-11-07 17:08:06.730157,-686,2025-11-07 17:08:09.240166846
2025-11-07 17:08:06.730157,14591,2025-11-07 17:08:09.247859154
2025-11-07 17:08:06.730157,-3,2025-11-07 17:08:09.255551462
2025-11-07 17:08:06.730157,-619,2025-11-07 17:08:09.263243769
2025-11-07 17:08:06.730157,9471,2025-11-07 17:08:09.270936077
2025-11-07 17:08:06.730157,-3,2025-11-07 17:08:09.278628385
2025-11-07 17:08:06.730157,-686,2025-11-07 17:08:09.286320692
2025-11-07 17:08:06.730157,22527,2025-11-07 17:08:09.294013000
2025-11-07 17:08:06.730157,-3,2025-11-07 17:08:09.301705308
2025-11-07 17:08:06.730157,-782,2025-11-07 17:08:09.309397615
2025-11-07 17:08:06.730157,9471,2025-11-07 17:08:09.317089923
2025-11-07 17:08:06.730157,-3,2025-11-07 17:08:09.324782231
2025-11-07 17:08:06.730157,-836,2025-11-07 17:08:09.332474538
2025-11-07 17:08:06.730157,-12289,2025-11-07 17:08:09.340166846
2025-11-07 17:08:06.730157,-4,2025-11-07 17:08:09.347859154
2025-11-07 17:08:06.730157,-784,2025-11-07 17:08:09.355551462
2025-11-07 17:08:06.730157,26367,2025-11-07 17:08:09.363243769
2025-11-07 17:08:06.730157,-4,2025-11-07 17:08:09.370936077
2025-11-07 17:08:06.730157,-853,2025-11-07 17:08:09.378628385
2025-11-07 17:08:06.730157,28671,2025-11-07 17:08:09.386320692
2025-11-07 17:08:06.730157,-4,2025-11-07 17:08:09.394013000
2025-11-07 17:08:06.730157,-965,2025-11-07 17:08:09.401705308
2025-11-07 17:08:06.730157,-28161,2025-11-07 17:08:09.409397615
2025-11-07 17:08:06.730157,-4,2025-11-07 17:08:09.417089923
2025-11-07 17:08:06.730157,-989,2025-11-07 17:08:09.424782231
2025-11-07 17:08:06.730157,23295,2025-11-07 17:08:09.432474538
2025-11-07 17:08:06.730157,-4,2025-11-07 17:08:09.440166846
2025-11-07 17:08:06.730157,-934,2025-11-07 17:08:09.447859154
2025-11-07 17:08:06.730157,-2305,2025-11-07 17:08:09.455551462
2025-11-07 17:08:06.730157,-5,2025-11-07 17:08:09.463243769
2025-11-07 17:08:06.730157,-934,2025-11-07 17:08:09.470936077
2025-11-07 17:08:06.730157,1791,2025-11-07 17:08:09.478628385
2025-11-07 17:08:06.730157,-4,2025-11-07 17:08:09.486320692
2025-11-07 17:08:06.730157,-1008,2025-11-07 17:08:09.494013000
2025-11-07 17:08:06.730157,18431,2025-11-07 17:08:09.501705308
2025-11-07 17:08:06.730157,-4,2025-11-07 17:08:09.509397615
2025-11-07 17:08:06.730157,-1070,2025-11-07 17:08:09.517089923
2025-11-07 17:08:06.730157,15359,2025-11-07 17:08:09.524782231
2025-11-07 17:08:06.730157,-4,2025-11-07 17:08:09.532474538
2025-11-07 17:08:06.730157,-996,2025-11-07 17:08:09.540166846
2025-11-07 17:08:06.730157,-3073,2025-11-07 17:08:09.547859154
2025-11-07 17:08:06.730157,-5,2025-11-07 17:08:09.555551462
2025-11-07 17:08:06.730157,-920,2025-11-07 17:08:09.563243769
2025-11-07 17:08:06.730157,-1281,2025-11-07 17:08:09.570936077
2025-11-07 17:08:06.730157,-5,2025-11-07 17:08:09.578628385
2025-11-07 17:08:06.730157,-987,2025-11-07 17:08:09.586320692
2025-11-07 17:08:06.730157,15359,2025-11-07 17:08:09.594013000
2025-11-07 17:08:06.730157,-4,2025-11-07 17:08:09.601705308
2025-11-07 17:08:06.730157,-1058,2025-11-07 17:08:09.609397615
2025-11-07 17:08:06.730157,16639,2025-11-07 17:08:09.617089923
2025-11-07 17:08:06.730157,-4,2025-11-07 17:08:09.624782231
2025-11-07 17:08:06.730157,-1044,2025-11-07 17:08:09.632474538
2025-11-07 17:08:06.730157,-6145,2025-11-07 17:08:09.640166846
2025-11-07 17:08:06.730157,-5,2025-11-07 17:08:09.647859154
2025-11-07 17:08:06.730157,-984,2025-11-07 17:08:09.655551462
2025-11-07 17:08:06.730157,-18945,2025-11-07 17:08:09.663243769
2025-11-07 17:08:06.730157,-5,2025-11-07 17:08:09.670936077
2025-11-07 17:08:06.730157,-1008,2025-11-07 17:08:09.678628385
2025-11-07 17:08:06.730157,-1,2025-11-07 17:08:09.686320692
2025-11-07 17:08:06.730157,-5,2025-11-07 17:08:09.694013000
2025-11-07 17:08:06.730157,-1061,2025-11-07 17:08:09.701705308
2025-11-07 17:08:06.730157,15359,2025-11-07 17:08:09.709397615
2025-11-07 17:08:06.730157,-4,2025-11-07 17:08:09.717089923
2025-11-07 17:08:06.730157,-1082,2025-11-07 17:08:09.724782231
2025-11-07 17:08:06.730157,-1793,2025-11-07 17:08:09.732474538
2025-11-07 17:08:06.730157,-5,2025-11-07 17:08:09.740166846
2025-11-07 17:08:06.730157,-970,2025-11-07 17:08:09.747859154
2025-11-07 17:08:06.730157,20735,2025-11-07 17:08:09.755551462
2025-11-07 17:08:06.730157,-4,2025-11-07 17:08:09.763243769
2025-11-07 17:08:06.730157,-722,2025-11-07 17:08:09.770936077
2025-11-07 17:08:06.730157,-15361,2025-11-07 17:08:09.778628385
2025-11-07 17:08:06.730157,-4,2025-11-07 17:08:09.786320692
2025-11-07 17:08:06.730157,-939,2025-11-07 17:08:09.794013000
2025-11-07 17:08:06.730157,-30721,2025-11-07 17:08:09.801705308
2025-11-07 17:08:06.730157,-4,2025-11-07 17:08:09.809397615
2025-11-07 17:08:06.730157,-984,2025-11-07 17:08:09.817089923
2025-11-07 17:08:06.730157,29951,2025-11-07 17:08:09.824782231
2025-11-07 17:08:06.730157,-4,2025-11-07 17:08:09.832474538
2025-11-07 17:08:06.730157,-918,2025-11-07 17:08:09.840166846
2025-11-07 17:08:06.730157,22527,2025-11-07 17:08:09.847859154
2025-11-07 17:08:06.730157,-4,2025-11-07 17:08:09.855551462
2025-11-07 17:08:06.730157,-827,2025-11-07 17:08:09.863243769
2025-11-07 17:08:06.730157,26879,2025-11-07 17:08:09.870936077
2025-11-07 17:08:06.730157,-4,2025-11-07 17:08:09.878628385
2025-11-07 17:08:06.730157,-848,2025-11-07 17:08:09.886320692
2025-11-07 17:08:06.730157,-7425,2025-11-07 17:08:09.894013000
2025-11-07 17:08:06.730157,-4,2025-11-07 17:08:09.901705308
2025-11-07 17:08:06.730157,-877,2025-11-07 17:08:09.909397615
2025-11-07 17:08:06.730157,-769,2025-11-07 17:08:09.917089923
2025-11-07 17:08:06.730157,-4,2025-11-07 17:08:09.924782231
2025-11-07 17:08:06.730157,-832,2025-11-07 17:08:09.932474538
2025-11-07 17:08:06.730157,-13057,2025-11-07 17:08:09.940166846
2025-11-07 17:08:06.730157,-4,2025-11-07 17:08:09.947859154
2025-11-07 17:08:06.730157,-739,2025-11-07 17:08:09.955551462
2025-11-07 17:08:06.730157,-15361,2025-11-07 17:08:09.963243769
2025-11-07 17:08:06.730157,-4,2025-11-07 17:08:09.970936077
2025-11-07 17:08:06.730157,-732,2025-11-07 17:08:09.978628385
2025-11-07 17:08:06.730157,511,2025-11-07 17:08:09.986320692
2025-11-07 17:08:06.730157,-3,2025-11-07 17:08:09.994013000
2025-11-07 17:08:06.730157,-841,2025-11-07 17:08:10.001705308
2025-11-07 17:08:06.730157,4607,2025-11-07 17:08:10.009397615
2025-11-07 17:08:06.730157,-3,2025-11-07 17:08:10.017089923
2025-11-07 17:08:06.730157,-867,2025-11-07 17:08:10.024782231
2025-11-07 17:08:06.730157,-17153,2025-11-07 17:08:10.032474538
2025-11-07 17:08:06.730157,-4,2025-11-07 17:08:10.040166846
2025-11-07 17:08:06.730157,-817,2025-11-07 17:08:10.047859154
2025-11-07 17:08:06.730157,26879,2025-11-07 17:08:10.055551462
2025-11-07 17:08:06.730157,-4,2025-11-07 17:08:10.063243769
2025-11-07 17:08:06.730157,-815,2025-11-07 17:08:10.070936077
2025-11-07 17:08:07.315443,-882,2025-11-07 17:08:10.078628385
2025-11-07 17:08:07.315443,32511,2025-11-07 17:08:10.086320692
2025-11-07 17:08:07.315443,-4,2025-11-07 17:08:10.094013000
2025-11-07 17:08:07.315443,-822,2025-11-07 17:08:10.101705308
2025-11-07 17:08:07.315443,23807,2025-11-07 17:08:10.109397615
2025-11-07 17:08:07.315443,-4,2025-11-07 17:08:10.117089923
2025-11-07 17:08:07.315443,-848,2025-11-07 17:08:10.124782231
2025-11-07 17:08:07.315443,-24065,2025-11-07 17:08:10.132474538
2025-11-07 17:08:07.315443,-4,2025-11-07 17:08:10.140166846
2025-11-07 17:08:07.315443,-913,2025-11-07 17:08:10.147859154
2025-11-07 17:08:07.315443,-3329,2025-11-07 17:08:10.155551462
2025-11-07 17:08:07.315443,-4,2025-11-07 17:08:10.163243769
2025-11-07 17:08:07.315443,-834,2025-11-07 17:08:10.170936077
2025-11-07 17:08:07.315443,-769,2025-11-07 17:08:10.178628385
2025-11-07 17:08:07.315443,-4,2025-11-07 17:08:10.186320692
2025-11-07 17:08:07.315443,-748,2025-11-07 17:08:10.194013000
2025-11-07 17:08:07.315443,-20225,2025-11-07 17:08:10.201705308
2025-11-07 17:08:07.315443,-4,2025-11-07 17:08:10.209397615
2025-11-07 17:08:07.315443,-741,2025-11-07 17:08:10.217089923
2025-11-07 17:08:07.315443,-14849,2025-11-07 17:08:10.224782230
2025-11-07 17:08:07.315443,-4,2025-11-07 17:08:10.232474538
2025-11-07 17:08:07.315443,-884,2025-11-07 17:08:10.240166846
2025-11-07 17:08:07.315443,-15361,2025-11-07 17:08:10.247859154
2025-11-07 17:08:07.315443,-4,2025-11-07 17:08:10.255551462
2025-11-07 17:08:07.315443,-939,2025-11-07 17:08:10.263243769
2025-11-07 17:08:07.315443,-19713,2025-11-07 17:08:10.270936077
2025-11-07 17:08:07.315443,-4,2025-11-07 17:08:10.278628385
2025-11-07 17:08:07.315443,-810,2025-11-07 17:08:10.286320692
2025-11-07 17:08:07.315443,-13569,2025-11-07 17:08:10.294013000
2025-11-07 17:08:07.315443,-4,2025-11-07 17:08:10.301705308
2025-11-07 17:08:07.315443,-677,2025-11-07 17:08:10.309397615
2025-11-07 17:08:07.315443,6655,2025-11-07 17:08:10.317089923
2025-11-07 17:08:07.315443,-3,2025-11-07 17:08:10.324782231
2025-11-07 17:08:07.315443,-708,2025-11-07 17:08:10.332474538
2025-11-07 17:08:07.315443,26623,2025-11-07 17:08:10.340166846
2025-11-07 17:08:07.315443,-3,2025-11-07 17:08:10.347859154
2025-11-07 17:08:07.315443,-772,2025-11-07 17:08:10.355551462
2025-11-07 17:08:07.315443,22527,2025-11-07 17:08:10.363243769
2025-11-07 17:08:07.315443,-3,2025-11-07 17:08:10.370936077
2025-11-07 17:08:07.315443,-703,2025-11-07 17:08:10.378628385
2025-11-07 17:08:07.315443,11519,2025-11-07 17:08:10.386320692
2025-11-07 17:08:07.315443,-3,2025-11-07 17:08:10.394013000
2025-11-07 17:08:07.315443,-636,2025-11-07 17:08:10.401705308
2025-11-07 17:08:07.315443,25343,2025-11-07 17:08:10.409397615
2025-11-07 17:08:07.315443,-3,2025-11-07 17:08:10.417089923
2025-11-07 17:08:07.315443,-560,2025-11-07 17:08:10.424782231
2025-11-07 17:08:07.315443,255,2025-11-07 17:08:10.432474538
2025-11-07 17:08:07.315443,-2,2025-11-07 17:08:10.440166846
2025-11-07 17:08:07.315443,-517,2025-11-07 17:08:10.447859154
2025-11-07 17:08:07.315443,24575,2025-11-07 17:08:10.455551462
2025-11-07 17:08:07.315443,-2,2025-11-07 17:08:10.463243769
2025-11-07 17:08:07.315443,-460,2025-11-07 17:08:10.470936077
2025-11-07 17:08:07.315443,30719,2025-11-07 17:08:10.478628385
2025-11-07 17:08:07.315443,-2,2025-11-07 17:08:10.486320692
2025-11-07 17:08:07.315443,-324,2025-11-07 17:08:10.494013000
2025-11-07 17:08:07.315443,-31745,2025-11-07 17:08:10.501705308
2025-11-07 17:08:07.315443,-2,2025-11-07 17:08:10.509397615
2025-11-07 17:08:07.315443,-300,2025-11-07 17:08:10.517089923
2025-11-07 17:08:07.315443,-18433,2025-11-07 17:08:10.524782231
2025-11-07 17:08:07.315443,-2,2025-11-07 17:08:10.532474538
2025-11-07 17:08:07.315443,-348,2025-11-07 17:08:10.540166846
2025-11-07 17:08:07.315443,-513,2025-11-07 17:08:10.547859154
2025-11-07 17:08:07.315443,-2,2025-11-07 17:08:10.555551462
2025-11-07 17:08:07.315443,-286,2025-11-07 17:08:10.563243769
2025-11-07 17:08:07.315443,5375,2025-11-07 17:08:10.570936077
2025-11-07 17:08:07.315443,-1,2025-11-07 17:08:10.578628385
2025-11-07 17:08:07.315443,-233,2025-11-07 17:08:10.586320692
2025-11-07 17:08:07.315443,-3585,2025-11-07 17:08:10.594013000
2025-11-07 17:08:07.315443,-2,2025-11-07 17:08:10.601705308
2025-11-07 17:08:07.315443,-176,2025-11-07 17:08:10.609397615
2025-11-07 17:08:07.315443,-30209,2025-11-07 17:08:10.617089923
2025-11-07 17:08:07.315443,-1,2025-11-07 17:08:10.624782231
2025-11-07 17:08:07.315443,52,2025-11-07 17:08:10.632474538
2025-11-07 17:08:07.315443,-12544,2025-11-07 17:08:10.640166846
2025-11-07 17:08:07.315443,0,2025-11-07 17:08:10.647859154
2025-11-07 17:08:07.315443,143,2025-11-07 17:08:10.655551462
2025-11-07 17:08:07.315443,-32768,2025-11-07 17:08:10.663243769
2025-11-07 17:08:07.315443,0,2025-11-07 17:08:10.670936077
2025-11-07 17:08:07.315443,164,2025-11-07 17:08:10.678628385
2025-11-07 17:08:07.315443,-6400,2025-11-07 17:08:10.686320692
2025-11-07 17:08:07.315443,0,2025-11-07 17:08:10.694013000
2025-11-07 17:08:07.315443,305,2025-11-07 17:08:10.701705308
2025-11-07 17:08:07.315443,11264,2025-11-07 17:08:10.709397615
2025-11-07 17:08:07.315443,1,2025-11-07 17:08:10.717089923
2025-11-07 17:08:07.315443,360,2025-11-07 17:08:10.724782231
2025-11-07 17:08:07.315443,-28672,2025-11-07 17:08:10.732474538
2025-11-07 17:08:07.315443,1,2025-11-07 17:08:10.740166846
2025-11-07 17:08:07.315443,412,2025-11-07 17:08:10.747859154
2025-11-07 17:08:07.315443,-4864,2025-11-07 17:08:10.755551462
2025-11-07 17:08:07.315443,1,2025-11-07 17:08:10.763243769
2025-11-07 17:08:07.315443,531,2025-11-07 17:08:10.770936077
2025-11-07 17:08:07.315443,13568,2025-11-07 17:08:10.778628385
2025-11-07 17:08:07.315443,2,2025-11-07 17:08:10.786320692
2025-11-07 17:08:07.315443,565,2025-11-07 17:08:10.794013000
2025-11-07 17:08:07.315443,6144,2025-11-07 17:08:10.801705308
2025-11-07 17:08:07.315443,2,2025-11-07 17:08:10.809397615
2025-11-07 17:08:07.315443,584,2025-11-07 17:08:10.817089923
2025-11-07 17:08:07.315443,22528,2025-11-07 17:08:10.824782231
2025-11-07 17:08:07.315443,2,2025-11-07 17:08:10.832474538
2025-11-07 17:08:07.315443,615,2025-11-07 17:08:10.840166846
2025-11-07 17:08:07.315443,-24064,2025-11-07 17:08:10.847859154
2025-11-07 17:08:07.315443,2,2025-11-07 17:08:10.855551462
2025-11-07 17:08:07.315443,724,2025-11-07 17:08:10.863243769
2025-11-07 17:08:07.315443,6656,2025-11-07 17:08:10.870936077
2025-11-07 17:08:07.315443,3,2025-11-07 17:08:10.878628385
2025-11-07 17:08:07.315443,817,2025-11-07 17:08:10.886320692
2025-11-07 17:08:07.315443,24320,2025-11-07 17:08:10.894013000
2025-11-07 17:08:07.315443,3,2025-11-07 17:08:10.901705308
2025-11-07 17:08:07.315443,953,2025-11-07 17:08:10.909397615
2025-11-07 17:08:07.860149,963,2025-11-07 17:08:10.917089923
2025-11-07 17:08:07.860149,-7680,2025-11-07 17:08:10.924782231
2025-11-07 17:08:07.860149,3,2025-11-07 17:08:10.932474538
2025-11-07 17:08:07.860149,1056,2025-11-07 17:08:10.940166846
2025-11-07 17:08:07.860149,14848,2025-11-07 17:08:10.947859154
2025-11-07 17:08:07.860149,4,2025-11-07 17:08:10.955551462
2025-11-07 17:08:07.860149,1123,2025-11-07 17:08:10.963243769
2025-11-07 17:08:07.860149,27648,2025-11-07 17:08:10.970936077
2025-11-07 17:08:07.860149,4,2025-11-07 17:08:10.978628385
2025-11-07 17:08:07.860149,1139,2025-11-07 17:08:10.986320692
2025-11-07 17:08:07.860149,31232,2025-11-07 17:08:10.994013000
2025-11-07 17:08:07.860149,4,2025-11-07 17:08:11.001705308
2025-11-07 17:08:07.860149,1118,2025-11-07 17:08:11.009397615
2025-11-07 17:08:07.860149,14336,2025-11-07 17:08:11.017089923
2025-11-07 17:08:07.860149,4,2025-11-07 17:08:11.024782231
2025-11-07 17:08:07.860149,1001,2025-11-07 17:08:11.032474538
2025-11-07 17:08:07.860149,-16384,2025-11-07 17:08:11.040166846
2025-11-07 17:08:07.860149,3,2025-11-07 17:08:11.047859154
2025-11-07 17:08:07.860149,949,2025-11-07 17:08:11.055551462
2025-11-07 17:08:07.860149,23040,2025-11-07 17:08:11.063243769
2025-11-07 17:08:07.860149,3,2025-11-07 17:08:11.070936077
2025-11-07 17:08:07.860149,801,2025-11-07 17:08:11.078628385
2025-11-07 17:08:07.860149,-6912,2025-11-07 17:08:11.086320692
2025-11-07 17:08:07.860149,2,2025-11-07 17:08:11.094013000
2025-11-07 17:08:07.860149,650,2025-11-07 17:08:11.101705308
2025-11-07 17:08:07.860149,25600,2025-11-07 17:08:11.109397615
2025-11-07 17:08:07.860149,2,2025-11-07 17:08:11.117089923
2025-11-07 17:08:07.860149,507,2025-11-07 17:08:11.124782231
2025-11-07 17:08:07.860149,-25600,2025-11-07 17:08:11.132474538
2025-11-07 17:08:07.860149,1,2025-11-07 17:08:11.140166846
2025-11-07 17:08:07.860149,376,2025-11-07 17:08:11.147859154
2025-11-07 17:08:07.860149,768,2025-11-07 17:08:11.155551462
2025-11-07 17:08:07.860149,1,2025-11-07 17:08:11.163243769
2025-11-07 17:08:07.860149,181,2025-11-07 17:08:11.170936077
2025-11-07 17:08:07.860149,25600,2025-11-07 17:08:11.178628385
2025-11-07 17:08:07.860149,0,2025-11-07 17:08:11.186320692
2025-11-07 17:08:07.860149,2,2025-11-07 17:08:11.194013000
2025-11-07 17:08:07.860149,-5376,2025-11-07 17:08:11.201705308
2025-11-07 17:08:07.860149,-1,2025-11-07 17:08:11.209397615
2025-11-07 17:08:07.860149,-147,2025-11-07 17:08:11.217089923
2025-11-07 17:08:07.860149,6655,2025-11-07 17:08:11.224782230
2025-11-07 17:08:07.860149,-1,2025-11-07 17:08:11.232474538
2025-11-07 17:08:07.860149,-255,2025-11-07 17:08:11.240166846
2025-11-07 17:08:07.860149,32511,2025-11-07 17:08:11.247859154
2025-11-07 17:08:07.860149,-2,2025-11-07 17:08:11.255551462
2025-11-07 17:08:07.860149,-431,2025-11-07 17:08:11.263243769
2025-11-07 17:08:07.860149,767,2025-11-07 17:08:11.270936077
2025-11-07 17:08:07.860149,-2,2025-11-07 17:08:11.278628385
2025-11-07 17:08:07.860149,-610,2025-11-07 17:08:11.286320692
2025-11-07 17:08:07.860149,-27905,2025-11-07 17:08:11.294013000
2025-11-07 17:08:07.860149,-3,2025-11-07 17:08:11.301705308
2025-11-07 17:08:07.860149,-727,2025-11-07 17:08:11.309397615
2025-11-07 17:08:07.860149,-3329,2025-11-07 17:08:11.317089923
2025-11-07 17:08:07.860149,-4,2025-11-07 17:08:11.324782231
2025-11-07 17:08:07.860149,-820,2025-11-07 17:08:11.332474538
2025-11-07 17:08:07.860149,30463,2025-11-07 17:08:11.340166846
2025-11-07 17:08:07.860149,-4,2025-11-07 17:08:11.347859154
2025-11-07 17:08:07.860149,-903,2025-11-07 17:08:11.355551462
2025-11-07 17:08:07.860149,12287,2025-11-07 17:08:11.363243769
2025-11-07 17:08:07.860149,-4,2025-11-07 17:08:11.370936077
2025-11-07 17:08:07.860149,-1015,2025-11-07 17:08:11.378628385
2025-11-07 17:08:07.860149,1279,2025-11-07 17:08:11.386320692
2025-11-07 17:08:07.860149,-4,2025-11-07 17:08:11.394013000
2025-11-07 17:08:07.860149,-1123,2025-11-07 17:08:11.401705308
2025-11-07 17:08:07.860149,-22017,2025-11-07 17:08:11.409397615
2025-11-07 17:08:07.860149,-5,2025-11-07 17:08:11.417089923
2025-11-07 17:08:07.860149,-1139,2025-11-07 17:08:11.424782231
2025-11-07 17:08:07.860149,19199,2025-11-07 17:08:11.432474538
2025-11-07 17:08:07.860149,-5,2025-11-07 17:08:11.440166846
2025-11-07 17:08:07.860149,-1175,2025-11-07 17:08:11.447859154
2025-11-07 17:08:07.860149,10751,2025-11-07 17:08:11.455551462
2025-11-07 17:08:07.860149,-5,2025-11-07 17:08:11.463243769
2025-11-07 17:08:07.860149,-1244,2025-11-07 17:08:11.470936077
2025-11-07 17:08:07.860149,16127,2025-11-07 17:08:11.478628385
2025-11-07 17:08:07.860149,-5,2025-11-07 17:08:11.486320692
2025-11-07 17:08:07.860149,-1194,2025-11-07 17:08:11.494013000
2025-11-07 17:08:07.860149,-1,2025-11-07 17:08:11.501705308
2025-11-07 17:08:07.860149,-5,2025-11-07 17:08:11.509397615
2025-11-07 17:08:07.860149,-1032,2025-11-07 17:08:11.517089923
2025-11-07 17:08:07.860149,-30977,2025-11-07 17:08:11.524782231
2025-11-07 17:08:07.860149,-5,2025-11-07 17:08:11.532474538
2025-11-07 17:08:07.860149,-1182,2025-11-07 17:08:11.540166846
2025-11-07 17:08:07.860149,8703,2025-11-07 17:08:11.547859154
2025-11-07 17:08:07.860149,-5,2025-11-07 17:08:11.555551462
2025-11-07 17:08:07.860149,-1230,2025-11-07 17:08:11.563243769
2025-11-07 17:08:07.860149,3327,2025-11-07 17:08:11.570936077
2025-11-07 17:08:07.860149,-5,2025-11-07 17:08:11.578628385
2025-11-07 17:08:07.860149,-1313,2025-11-07 17:08:11.586320692
2025-11-07 17:08:07.860149,5887,2025-11-07 17:08:11.594013000
2025-11-07 17:08:07.860149,-5,2025-11-07 17:08:11.601705308
2025-11-07 17:08:07.860149,-1320,2025-11-07 17:08:11.609397615
2025-11-07 17:08:07.860149,-7169,2025-11-07 17:08:11.617089923
2025-11-07 17:08:07.860149,-6,2025-11-07 17:08:11.624782231
2025-11-07 17:08:07.860149,-1261,2025-11-07 17:08:11.632474538
2025-11-07 17:08:07.860149,-3329,2025-11-07 17:08:11.640166846
2025-11-07 17:08:07.860149,-6,2025-11-07 17:08:11.647859154
2025-11-07 17:08:07.860149,-1235,2025-11-07 17:08:11.655551462
2025-11-07 17:08:07.860149,4607,2025-11-07 17:08:11.663243769
2025-11-07 17:08:07.860149,-5,2025-11-07 17:08:11.670936077
2025-11-07 17:08:07.860149,-1282,2025-11-07 17:08:11.678628385
2025-11-07 17:08:07.860149,12543,2025-11-07 17:08:11.686320692
2025-11-07 17:08:07.860149,-5,2025-11-07 17:08:11.694013000
2025-11-07 17:08:07.860149,-1282,2025-11-07 17:08:11.701705308
2025-11-07 17:08:07.860149,12543,2025-11-07 17:08:11.709397615
2025-11-07 17:08:07.860149,-5,2025-11-07 17:08:11.717089923
2025-11-07 17:08:07.860149,-1223,2025-11-07 17:08:11.724782231
2025-11-07 17:08:07.860149,4607,2025-11-07 17:08:11.732474538
2025-11-07 17:08:07.860149,-5,2025-11-07 17:08:11.740166846
2025-11-07 17:08:07.860149,-1199,2025-11-07 17:08:11.747859154
2025-11-07 17:08:08.398803,-1237,2025-11-07 17:08:11.755551462
2025-11-07 17:08:08.398803,14335,2025-11-07 17:08:11.763243769
2025-11-07 17:08:08.398803,-5,2025-11-07 17:08:11.770936077
2025-11-07 17:08:08.398803,-1194,2025-11-07 17:08:11.778628385
2025-11-07 17:08:08.398803,8191,2025-11-07 17:08:11.786320692
2025-11-07 17:08:08.398803,-5,2025-11-07 17:08:11.794013000
2025-11-07 17:08:08.398803,-1199,2025-11-07 17:08:11.801705308
2025-11-07 17:08:08.398803,17407,2025-11-07 17:08:11.809397615
2025-11-07 17:08:08.398803,-5,2025-11-07 17:08:11.817089923
2025-11-07 17:08:08.398803,-1208,2025-11-07 17:08:11.824782231
2025-11-07 17:08:08.398803,-31745,2025-11-07 17:08:11.832474538
2025-11-07 17:08:08.398803,-5,2025-11-07 17:08:11.840166846
2025-11-07 17:08:08.398803,-1182,2025-11-07 17:08:11.847859154
2025-11-07 17:08:08.398803,-15105,2025-11-07 17:08:11.855551462
2025-11-07 17:08:08.398803,-5,2025-11-07 17:08:11.863243769
2025-11-07 17:08:08.398803,-1053,2025-11-07 17:08:11.870936077
2025-11-07 17:08:08.398803,-19457,2025-11-07 17:08:11.878628385
2025-11-07 17:08:08.398803,-5,2025-11-07 17:08:11.886320692
2025-11-07 17:08:08.398803,-994,2025-11-07 17:08:11.894013000
2025-11-07 17:08:08.398803,4863,2025-11-07 17:08:11.901705308
2025-11-07 17:08:08.398803,-4,2025-11-07 17:08:11.909397615
2025-11-07 17:08:08.398803,-999,2025-11-07 17:08:11.917089923
2025-11-07 17:08:08.398803,14591,2025-11-07 17:08:11.924782231
2025-11-07 17:08:08.398803,-4,2025-11-07 17:08:11.932474538
2025-11-07 17:08:08.398803,-1030,2025-11-07 17:08:11.940166846
2025-11-07 17:08:08.398803,12799,2025-11-07 17:08:11.947859154
2025-11-07 17:08:08.398803,-4,2025-11-07 17:08:11.955551462
2025-11-07 17:08:08.398803,-994,2025-11-07 17:08:11.963243769
2025-11-07 17:08:08.398803,3583,2025-11-07 17:08:11.970936077
2025-11-07 17:08:08.398803,-4,2025-11-07 17:08:11.978628385
2025-11-07 17:08:08.398803,-929,2025-11-07 17:08:11.986320692
2025-11-07 17:08:08.398803,22527,2025-11-07 17:08:11.994013000
2025-11-07 17:08:08.398803,-4,2025-11-07 17:08:12.001705308
2025-11-07 17:08:08.398803,-844,2025-11-07 17:08:12.009397615
2025-11-07 17:08:08.398803,-6401,2025-11-07 17:08:12.017089923
2025-11-07 17:08:08.398803,-4,2025-11-07 17:08:12.024782231
2025-11-07 17:08:08.398803,-801,2025-11-07 17:08:12.032474538
2025-11-07 17:08:08.398803,18175,2025-11-07 17:08:12.040166846
2025-11-07 17:08:08.398803,-3,2025-11-07 17:08:12.047859154
2025-11-07 17:08:08.398803,-701,2025-11-07 17:08:12.055551462
2025-11-07 17:08:08.398803,30975,2025-11-07 17:08:12.063243769
2025-11-07 17:08:08.398803,-3,2025-11-07 17:08:12.070936077
2025-11-07 17:08:08.398803,-612,2025-11-07 17:08:12.078628385
2025-11-07 17:08:08.398803,17407,2025-11-07 17:08:12.086320692
2025-11-07 17:08:08.398803,-3,2025-11-07 17:08:12.094013000
2025-11-07 17:08:08.398803,-662,2025-11-07 17:08:12.101705308
2025-11-07 17:08:08.398803,15103,2025-11-07 17:08:12.109397615
2025-11-07 17:08:08.398803,-3,2025-11-07 17:08:12.117089923
2025-11-07 17:08:08.398803,-770,2025-11-07 17:08:12.124782231
2025-11-07 17:08:08.398803,7679,2025-11-07 17:08:12.132474538
2025-11-07 17:08:08.398803,-3,2025-11-07 17:08:12.140166846
2025-11-07 17:08:08.398803,-813,2025-11-07 17:08:12.147859154
2025-11-07 17:08:08.398803,-4353,2025-11-07 17:08:12.155551462
2025-11-07 17:08:08.398803,-4,2025-11-07 17:08:12.163243769
2025-11-07 17:08:08.398803,-796,2025-11-07 17:08:12.170936077
2025-11-07 17:08:08.398803,-22785,2025-11-07 17:08:12.178628385
2025-11-07 17:08:08.398803,-4,2025-11-07 17:08:12.186320692
2025-11-07 17:08:08.398803,-796,2025-11-07 17:08:12.194013000
2025-11-07 17:08:08.398803,-20993,2025-11-07 17:08:12.201705308
2025-11-07 17:08:08.398803,-4,2025-11-07 17:08:12.209397615
2025-11-07 17:08:08.398803,-865,2025-11-07 17:08:12.217089923
2025-11-07 17:08:08.398803,-19201,2025-11-07 17:08:12.224782230
2025-11-07 17:08:08.398803,-4,2025-11-07 17:08:12.232474538
2025-11-07 17:08:08.398803,-922,2025-11-07 17:08:12.240166846
2025-11-07 17:08:08.398803,-27137,2025-11-07 17:08:12.247859154
2025-11-07 17:08:08.398803,-4,2025-11-07 17:08:12.255551462
2025-11-07 17:08:08.398803,-879,2025-11-07 17:08:12.263243769
2025-11-07 17:08:08.398803,31743,2025-11-07 17:08:12.270936077
2025-11-07 17:08:08.398803,-4,2025-11-07 17:08:12.278628385
2025-11-07 17:08:08.398803,-851,2025-11-07 17:08:12.286320692
2025-11-07 17:08:08.398803,26879,2025-11-07 17:08:12.294013000
2025-11-07 17:08:08.398803,-4,2025-11-07 17:08:12.301705308
2025-11-07 17:08:08.398803,-915,2025-11-07 17:08:12.309397615
2025-11-07 17:08:08.398803,21503,2025-11-07 17:08:12.317089923
2025-11-07 17:08:08.398803,-4,2025-11-07 17:08:12.324782231
2025-11-07 17:08:08.398803,-1008,2025-11-07 17:08:12.332474538
2025-11-07 17:08:08.398803,-28929,2025-11-07 17:08:12.340166846
2025-11-07 17:08:08.398803,-4,2025-11-07 17:08:12.347859154
2025-11-07 17:08:08.398803,-808,2025-11-07 17:08:12.355551462
2025-11-07 17:08:08.398803,-5633,2025-11-07 17:08:12.363243769
2025-11-07 17:08:08.398803,-4,2025-11-07 17:08:12.370936077
2025-11-07 17:08:08.398803,-870,2025-11-07 17:08:12.378628385
2025-11-07 17:08:08.398803,6143,2025-11-07 17:08:12.386320692
2025-11-07 17:08:08.398803,-4,2025-11-07 17:08:12.394013000
2025-11-07 17:08:08.398803,-932,2025-11-07 17:08:12.401705308
2025-11-07 17:08:08.398803,17151,2025-11-07 17:08:12.409397615
2025-11-07 17:08:08.398803,-4,2025-11-07 17:08:12.417089923
2025-11-07 17:08:08.398803,-1015,2025-11-07 17:08:12.424782231
2025-11-07 17:08:08.398803,19455,2025-11-07 17:08:12.432474538
2025-11-07 17:08:08.398803,-4,2025-11-07 17:08:12.440166846
2025-11-07 17:08:08.398803,-994,2025-11-07 17:08:12.447859154
2025-11-07 17:08:08.398803,9727,2025-11-07 17:08:12.455551462
2025-11-07 17:08:08.398803,-4,2025-11-07 17:08:12.463243769
2025-11-07 17:08:08.398803,-982,2025-11-07 17:08:12.470936077
2025-11-07 17:08:08.398803,-2305,2025-11-07 17:08:12.478628385
2025-11-07 17:08:08.398803,-5,2025-11-07 17:08:12.486320692
2025-11-07 17:08:08.398803,-977,2025-11-07 17:08:12.494013000
2025-11-07 17:08:08.398803,2559,2025-11-07 17:08:12.501705308
2025-11-07 17:08:08.398803,-4,2025-11-07 17:08:12.509397615
2025-11-07 17:08:08.398803,-1011,2025-11-07 17:08:12.517089923
2025-11-07 17:08:08.398803,14591,2025-11-07 17:08:12.524782231
2025-11-07 17:08:08.398803,-4,2025-11-07 17:08:12.532474538
2025-11-07 17:08:08.398803,-1032,2025-11-07 17:08:12.540166846
2025-11-07 17:08:08.398803,6143,2025-11-07 17:08:12.547859154
2025-11-07 17:08:08.398803,-4,2025-11-07 17:08:12.555551462
2025-11-07 17:08:08.398803,-1008,2025-11-07 17:08:12.563243769
2025-11-07 17:08:08.398803,-1793,2025-11-07 17:08:12.570936077
2025-11-07 17:08:08.398803,-5,2025-11-07 17:08:12.578628385
2025-11-07 17:08:08.398803,-989,2025-11-07 17:08:12.586320692
2025-11-07 17:08:08.983453,-1032,2025-11-07 17:08:12.594013000
2025-11-07 17:08:08.983453,767,2025-11-07 17:08:12.601705308
2025-11-07 17:08:08.983453,-4,2025-11-07 17:08:12.609397615
2025-11-07 17:08:08.983453,-1018,2025-11-07 17:08:12.617089923
2025-11-07 17:08:08.983453,-6657,2025-11-07 17:08:12.624782231
2025-11-07 17:08:08.983453,-5,2025-11-07 17:08:12.632474538
2025-11-07 17:08:08.983453,-1008,2025-11-07 17:08:12.640166846
2025-11-07 17:08:08.983453,-2305,2025-11-07 17:08:12.647859154
2025-11-07 17:08:08.983453,-5,2025-11-07 17:08:12.655551462
2025-11-07 17:08:08.983453,-1015,2025-11-07 17:08:12.663243769
2025-11-07 17:08:08.983453,6655,2025-11-07 17:08:12.670936077
2025-11-07 17:08:08.983453,-4,2025-11-07 17:08:12.678628385
2025-11-07 17:08:08.983453,-1075,2025-11-07 17:08:12.686320692
2025-11-07 17:08:08.983453,-1793,2025-11-07 17:08:12.694013000
2025-11-07 17:08:08.983453,-5,2025-11-07 17:08:12.701705308
2025-11-07 17:08:08.983453,-1022,2025-11-07 17:08:12.709397615
2025-11-07 17:08:08.983453,-4353,2025-11-07 17:08:12.717089923
2025-11-07 17:08:08.983453,-5,2025-11-07 17:08:12.724782231
2025-11-07 17:08:08.983453,-999,2025-11-07 17:08:12.732474538
2025-11-07 17:08:08.983453,-1281,2025-11-07 17:08:12.740166846
2025-11-07 17:08:08.983453,-5,2025-11-07 17:08:12.747859154
2025-11-07 17:08:08.983453,-994,2025-11-07 17:08:12.755551462
2025-11-07 17:08:08.983453,13567,2025-11-07 17:08:12.763243769
2025-11-07 17:08:08.983453,-4,2025-11-07 17:08:12.770936077
2025-11-07 17:08:08.983453,-1003,2025-11-07 17:08:12.778628385
2025-11-07 17:08:08.983453,19455,2025-11-07 17:08:12.786320692
2025-11-07 17:08:08.983453,-4,2025-11-07 17:08:12.794013000
2025-11-07 17:08:08.983453,-989,2025-11-07 17:08:12.801705308
2025-11-07 17:08:08.983453,4351,2025-11-07 17:08:12.809397615
2025-11-07 17:08:08.983453,-4,2025-11-07 17:08:12.817089923
2025-11-07 17:08:08.983453,-972,2025-11-07 17:08:12.824782231
2025-11-07 17:08:08.983453,1791,2025-11-07 17:08:12.832474538
2025-11-07 17:08:08.983453,-4,2025-11-07 17:08:12.840166846
2025-11-07 17:08:08.983453,-994,2025-11-07 17:08:12.847859154
2025-11-07 17:08:08.983453,4351,2025-11-07 17:08:12.855551462
2025-11-07 17:08:08.983453,-4,2025-11-07 17:08:12.863243769
2025-11-07 17:08:08.983453,-1042,2025-11-07 17:08:12.870936077
2025-11-07 17:08:08.983453,5631,2025-11-07 17:08:12.878628385
2025-11-07 17:08:08.983453,-4,2025-11-07 17:08:12.886320692
2025-11-07 17:08:08.983453,-1032,2025-11-07 17:08:12.894013000
2025-11-07 17:08:08.983453,3071,2025-11-07 17:08:12.901705308
2025-11-07 17:08:08.983453,-4,2025-11-07 17:08:12.909397615
2025-11-07 17:08:08.983453,-1006,2025-11-07 17:08:12.917089923
2025-11-07 17:08:08.983453,-4865,2025-11-07 17:08:12.924782231
2025-11-07 17:08:08.983453,-5,2025-11-07 17:08:12.932474538
2025-11-07 17:08:08.983453,-1008,2025-11-07 17:08:12.940166846
2025-11-07 17:08:08.983453,-3585,2025-11-07 17:08:12.947859154
2025-11-07 17:08:08.983453,-5,2025-11-07 17:08:12.955551462
2025-11-07 17:08:08.983453,-1042,2025-11-07 17:08:12.963243769
2025-11-07 17:08:08.983453,2559,2025-11-07 17:08:12.970936077
2025-11-07 17:08:08.983453,-4,2025-11-07 17:08:12.978628385
2025-11-07 17:08:08.983453,-1068,2025-11-07 17:08:12.986320692
2025-11-07 17:08:08.983453,-3585,2025-11-07 17:08:12.994013000
2025-11-07 17:08:08.983453,-5,2025-11-07 17:08:13.001705308
2025-11-07 17:08:08.983453,-1053,2025-11-07 17:08:13.009397615
2025-11-07 17:08:08.983453,-15873,2025-11-07 17:08:13.017089923
2025-11-07 17:08:08.983453,-5,2025-11-07 17:08:13.024782231
2025-11-07 17:08:08.983453,-1037,2025-11-07 17:08:13.032474538
2025-11-07 17:08:08.983453,-10241,2025-11-07 17:08:13.040166846
2025-11-07 17:08:08.983453,-5,2025-11-07 17:08:13.047859154
2025-11-07 17:08:08.983453,-1056,2025-11-07 17:08:13.055551462
2025-11-07 17:08:08.983453,-4353,2025-11-07 17:08:13.063243769
2025-11-07 17:08:08.983453,-5,2025-11-07 17:08:13.070936077
2025-11-07 17:08:08.983453,-1084,2025-11-07 17:08:13.078628385
2025-11-07 17:08:08.983453,-12033,2025-11-07 17:08:13.086320692
2025-11-07 17:08:08.983453,-5,2025-11-07 17:08:13.094013000
2025-11-07 17:08:08.983453,-1099,2025-11-07 17:08:13.101705308
2025-11-07 17:08:08.983453,-17665,2025-11-07 17:08:13.109397615
2025-11-07 17:08:08.983453,-5,2025-11-07 17:08:13.117089923
2025-11-07 17:08:08.983453,-1072,2025-11-07 17:08:13.124782231
2025-11-07 17:08:08.983453,-25601,2025-11-07 17:08:13.132474538
2025-11-07 17:08:08.983453,-5,2025-11-07 17:08:13.140166846
2025-11-07 17:08:08.983453,-1123,2025-11-07 17:08:13.147859154
2025-11-07 17:08:08.983453,-30977,2025-11-07 17:08:13.155551462
2025-11-07 17:08:08.983453,-5,2025-11-07 17:08:13.163243769
2025-11-07 17:08:08.983453,-1125,2025-11-07 17:08:13.170936077
2025-11-07 17:08:08.983453,11007,2025-11-07 17:08:13.178628385
2025-11-07 17:08:08.983453,-4,2025-11-07 17:08:13.186320692
2025-11-07 17:08:08.983453,-972,2025-11-07 17:08:13.194013000
2025-11-07 17:08:08.983453,-13313,2025-11-07 17:08:13.201705308
2025-11-07 17:08:08.983453,-5,2025-11-07 17:08:13.209397615
2025-11-07 17:08:08.983453,-1180,2025-11-07 17:08:13.217089923
2025-11-07 17:08:08.983453,19711,2025-11-07 17:08:13.224782230
2025-11-07 17:08:08.983453,-5,2025-11-07 17:08:13.232474538
2025-11-07 17:08:08.983453,-1158,2025-11-07 17:08:13.240166846
2025-11-07 17:08:08.983453,14847,2025-11-07 17:08:13.247859154
2025-11-07 17:08:08.983453,-5,2025-11-07 17:08:13.255551462
2025-11-07 17:08:08.983453,-1251,2025-11-07 17:08:13.263243769
2025-11-07 17:08:08.983453,13823,2025-11-07 17:08:13.270936077
2025-11-07 17:08:08.983453,-5,2025-11-07 17:08:13.278628385
2025-11-07 17:08:08.983453,-1282,2025-11-07 17:08:13.286320692
2025-11-07 17:08:08.983453,3839,2025-11-07 17:08:13.294013000
2025-11-07 17:08:08.983453,-5,2025-11-07 17:08:13.301705308
2025-11-07 17:08:08.983453,-1261,2025-11-07 17:08:13.309397615
2025-11-07 17:08:08.983453,-2817,2025-11-07 17:08:13.317089923
2025-11-07 17:08:08.983453,-6,2025-11-07 17:08:13.324782231
2025-11-07 17:08:08.983453,-1280,2025-11-07 17:08:13.332474538
2025-11-07 17:08:08.983453,-9985,2025-11-07 17:08:13.340166846
2025-11-07 17:08:08.983453,-6,2025-11-07 17:08:13.347859154
2025-11-07 17:08:08.983453,-1328,2025-11-07 17:08:13.355551462
2025-11-07 17:08:08.983453,-13825,2025-11-07 17:08:13.363243769
2025-11-07 17:08:08.983453,-6,2025-11-07 17:08:13.370936077
2025-11-07 17:08:08.983453,-1368,2025-11-07 17:08:13.378628385
2025-11-07 17:08:08.983453,-18689,2025-11-07 17:08:13.386320692
2025-11-07 17:08:08.983453,-6,2025-11-07 17:08:13.394013000
2025-11-07 17:08:08.983453,-1394,2025-11-07 17:08:13.401705308
2025-11-07 17:08:08.983453,-31489,2025-11-07 17:08:13.409397615
2025-11-07 17:08:08.983453,-6,2025-11-07 17:08:13.417089923
2025-11-07 17:08:08.983453,-1399,2025-11-07 17:08:13.424782231
2025-11-07 17:08:09.520601,-1444,2025-11-07 17:08:13.432474538
2025-11-07 17:08:09.520601,27903,2025-11-07 17:08:13.440166846
2025-11-07 17:08:09.520601,-6,2025-11-07 17:08:13.447859154
2025-11-07 17:08:09.520601,-1444,2025-11-07 17:08:13.455551462
2025-11-07 17:08:09.520601,20735,2025-11-07 17:08:13.463243769
2025-11-07 17:08:09.520601,-6,2025-11-07 17:08:13.470936077
2025-11-07 17:08:09.520601,-1421,2025-11-07 17:08:13.478628385
2025-11-07 17:08:09.520601,19455,2025-11-07 17:08:13.486320692
2025-11-07 17:08:09.520601,-6,2025-11-07 17:08:13.494013000
2025-11-07 17:08:09.520601,-1447,2025-11-07 17:08:13.501705308
2025-11-07 17:08:09.520601,24319,2025-11-07 17:08:13.509397615
2025-11-07 17:08:09.520601,-6,2025-11-07 17:08:13.517089923
2025-11-07 17:08:09.520601,-1478,2025-11-07 17:08:13.524782231
2025-11-07 17:08:09.520601,24319,2025-11-07 17:08:13.532474538
2025-11-07 17:08:09.520601,-6,2025-11-07 17:08:13.540166846
2025-11-07 17:08:09.520601,-1471,2025-11-07 17:08:13.547859154
2025-11-07 17:08:09.520601,8447,2025-11-07 17:08:13.555551462
2025-11-07 17:08:09.520601,-6,2025-11-07 17:08:13.563243769
2025-11-07 17:08:09.520601,-1499,2025-11-07 17:08:13.570936077
2025-11-07 17:08:09.520601,511,2025-11-07 17:08:13.578628385
2025-11-07 17:08:09.520601,-6,2025-11-07 17:08:13.586320692
2025-11-07 17:08:09.520601,-1526,2025-11-07 17:08:13.594013000
2025-11-07 17:08:09.520601,-1,2025-11-07 17:08:13.601705308
2025-11-07 17:08:09.520601,-7,2025-11-07 17:08:13.609397615
2025-11-07 17:08:09.520601,-1542,2025-11-07 17:08:13.617089923
2025-11-07 17:08:09.520601,5375,2025-11-07 17:08:13.624782231
2025-11-07 17:08:09.520601,-6,2025-11-07 17:08:13.632474538
2025-11-07 17:08:09.520601,-1566,2025-11-07 17:08:13.640166846
2025-11-07 17:08:09.520601,-2049,2025-11-07 17:08:13.647859154
2025-11-07 17:08:09.520601,-7,2025-11-07 17:08:13.655551462
2025-11-07 17:08:09.520601,-1523,2025-11-07 17:08:13.663243769
2025-11-07 17:08:09.520601,-4353,2025-11-07 17:08:13.670936077
2025-11-07 17:08:09.520601,-7,2025-11-07 17:08:13.678628385
2025-11-07 17:08:09.520601,-1518,2025-11-07 17:08:13.686320692
2025-11-07 17:08:09.520601,511,2025-11-07 17:08:13.694013000
2025-11-07 17:08:09.520601,-6,2025-11-07 17:08:13.701705308
2025-11-07 17:08:09.520601,-1537,2025-11-07 17:08:13.709397615
2025-11-07 17:08:09.520601,6655,2025-11-07 17:08:13.717089923
2025-11-07 17:08:09.520601,-6,2025-11-07 17:08:13.724782231
2025-11-07 17:08:09.520601,-1530,2025-11-07 17:08:13.732474538
2025-11-07 17:08:09.520601,10239,2025-11-07 17:08:13.740166846
2025-11-07 17:08:09.520601,-6,2025-11-07 17:08:13.747859154
2025-11-07 17:08:09.520601,-1506,2025-11-07 17:08:13.755551462
2025-11-07 17:08:09.520601,5887,2025-11-07 17:08:13.763243769
2025-11-07 17:08:09.520601,-6,2025-11-07 17:08:13.770936077
2025-11-07 17:08:09.520601,-1466,2025-11-07 17:08:13.778628385
2025-11-07 17:08:09.520601,12799,2025-11-07 17:08:13.786320692
2025-11-07 17:08:09.520601,-6,2025-11-07 17:08:13.794013000
2025-11-07 17:08:09.520601,-1468,2025-11-07 17:08:13.801705308
2025-11-07 17:08:09.520601,20735,2025-11-07 17:08:13.809397615
2025-11-07 17:08:09.520601,-6,2025-11-07 17:08:13.817089923
2025-11-07 17:08:09.520601,-1478,2025-11-07 17:08:13.824782231
2025-11-07 17:08:09.520601,24831,2025-11-07 17:08:13.832474538
2025-11-07 17:08:09.520601,-6,2025-11-07 17:08:13.840166846
2025-11-07 17:08:09.520601,-1461,2025-11-07 17:08:13.847859154
2025-11-07 17:08:09.520601,18687,2025-11-07 17:08:13.855551462
2025-11-07 17:08:09.520601,-6,2025-11-07 17:08:13.863243769
2025-11-07 17:08:09.520601,-1435,2025-11-07 17:08:13.870936077
2025-11-07 17:08:09.520601,19455,2025-11-07 17:08:13.878628385
2025-11-07 17:08:09.520601,-6,2025-11-07 17:08:13.886320692
2025-11-07 17:08:09.520601,-1433,2025-11-07 17:08:13.894013000
2025-11-07 17:08:09.520601,27903,2025-11-07 17:08:13.901705308
2025-11-07 17:08:09.520601,-6,2025-11-07 17:08:13.909397615
2025-11-07 17:08:09.520601,-1433,2025-11-07 17:08:13.917089923
2025-11-07 17:08:09.520601,-27905,2025-11-07 17:08:13.924782231
2025-11-07 17:08:09.520601,-6,2025-11-07 17:08:13.932474538
2025-11-07 17:08:09.520601,-1404,2025-11-07 17:08:13.940166846
2025-11-07 17:08:09.520601,-23041,2025-11-07 17:08:13.947859154
2025-11-07 17:08:09.520601,-6,2025-11-07 17:08:13.955551462
2025-11-07 17:08:09.520601,-1359,2025-11-07 17:08:13.963243769
2025-11-07 17:08:09.520601,-31489,2025-11-07 17:08:13.970936077
2025-11-07 17:08:09.520601,-6,2025-11-07 17:08:13.978628385
2025-11-07 17:08:09.520601,-1380,2025-11-07 17:08:13.986320692
2025-11-07 17:08:09.520601,-16897,2025-11-07 17:08:13.994013000
2025-11-07 17:08:09.520601,-6,2025-11-07 17:08:14.001705308
2025-11-07 17:08:09.520601,-1223,2025-11-07 17:08:14.009397615
2025-11-07 17:08:09.520601,-25089,2025-11-07 17:08:14.017089923
2025-11-07 17:08:09.520601,-5,2025-11-07 17:08:14.024782231
2025-11-07 17:08:09.520601,-1235,2025-11-07 17:08:14.032474538
2025-11-07 17:08:09.520601,-8193,2025-11-07 17:08:14.040166846
2025-11-07 17:08:09.520601,-6,2025-11-07 17:08:14.047859154
2025-11-07 17:08:09.520601,-1318,2025-11-07 17:08:14.055551462
2025-11-07 17:08:09.520601,-11265,2025-11-07 17:08:14.063243769
2025-11-07 17:08:09.520601,-6,2025-11-07 17:08:14.070936077
2025-11-07 17:08:09.520601,-1313,2025-11-07 17:08:14.078628385
2025-11-07 17:08:09.520601,-16129,2025-11-07 17:08:14.086320692
2025-11-07 17:08:09.520601,-6,2025-11-07 17:08:14.094013000
2025-11-07 17:08:09.520601,-1323,2025-11-07 17:08:14.101705308
2025-11-07 17:08:09.520601,-7681,2025-11-07 17:08:14.109397615
2025-11-07 17:08:09.520601,-6,2025-11-07 17:08:14.117089923
2025-11-07 17:08:09.520601,-1328,2025-11-07 17:08:14.124782231
2025-11-07 17:08:09.520601,767,2025-11-07 17:08:14.132474538
2025-11-07 17:08:09.520601,-5,2025-11-07 17:08:14.140166846
2025-11-07 17:08:09.520601,-1292,2025-11-07 17:08:14.147859154
2025-11-07 17:08:09.520601,-4097,2025-11-07 17:08:14.155551462
2025-11-07 17:08:09.520601,-6,2025-11-07 17:08:14.163243769
2025-11-07 17:08:09.520601,-1268,2025-11-07 17:08:14.170936077
2025-11-07 17:08:09.520601,-3329,2025-11-07 17:08:14.178628385
2025-11-07 17:08:09.520601,-6,2025-11-07 17:08:14.186320692
2025-11-07 17:08:09.520601,-1273,2025-11-07 17:08:14.194013000
2025-11-07 17:08:09.520601,2047,2025-11-07 17:08:14.201705308
2025-11-07 17:08:09.520601,-5,2025-11-07 17:08:14.209397615
2025-11-07 17:08:09.520601,-1278,2025-11-07 17:08:14.217089923
2025-11-07 17:08:09.520601,13055,2025-11-07 17:08:14.224782230
2025-11-07 17:08:09.520601,-5,2025-11-07 17:08:14.232474538
2025-11-07 17:08:09.520601,-1251,2025-11-07 17:08:14.240166846
2025-11-07 17:08:09.520601,11775,2025-11-07 17:08:14.247859154
2025-11-07 17:08:09.520601,-5,2025-11-07 17:08:14.255551462
2025-11-07 17:08:09.520601,-1213,2025-11-07 17:08:14.263243769
2025-11-07 17:08:10.063927,-1227,2025-11-07 17:08:14.270936077
2025-11-07 17:08:10.063927,24575,2025-11-07 17:08:14.278628385
2025-11-07 17:08:10.063927,-5,2025-11-07 17:08:14.286320692
2025-11-07 17:08:10.063927,-1192,2025-11-07 17:08:14.294013000
2025-11-07 17:08:10.063927,23551,2025-11-07 17:08:14.301705308
2025-11-07 17:08:10.063927,-5,2025-11-07 17:08:14.309397615
2025-11-07 17:08:10.063927,-1156,2025-11-07 17:08:14.317089923
2025-11-07 17:08:10.063927,26623,2025-11-07 17:08:14.324782231
2025-11-07 17:08:10.063927,-5,2025-11-07 17:08:14.332474538
2025-11-07 17:08:10.063927,-1134,2025-11-07 17:08:14.340166846
2025-11-07 17:08:10.063927,-24321,2025-11-07 17:08:14.347859154
2025-11-07 17:08:10.063927,-5,2025-11-07 17:08:14.355551462
2025-11-07 17:08:10.063927,-1151,2025-11-07 17:08:14.363243769
2025-11-07 17:08:10.063927,-23041,2025-11-07 17:08:14.370936077
2025-11-07 17:08:10.063927,-5,2025-11-07 17:08:14.378628385
2025-11-07 17:08:10.063927,-1115,2025-11-07 17:08:14.386320692
2025-11-07 17:08:10.063927,-19969,2025-11-07 17:08:14.394013000
2025-11-07 17:08:10.063927,-5,2025-11-07 17:08:14.401705308
2025-11-07 17:08:10.063927,-1089,2025-11-07 17:08:14.409397615
2025-11-07 17:08:10.063927,-19969,2025-11-07 17:08:14.417089923
2025-11-07 17:08:10.063927,-5,2025-11-07 17:08:14.424782231
2025-11-07 17:08:10.063927,-1080,2025-11-07 17:08:14.432474538
2025-11-07 17:08:10.063927,-21249,2025-11-07 17:08:14.440166846
2025-11-07 17:08:10.063927,-5,2025-11-07 17:08:14.447859154
2025-11-07 17:08:10.063927,-1118,2025-11-07 17:08:14.455551462
2025-11-07 17:08:10.063927,-19457,2025-11-07 17:08:14.463243769
2025-11-07 17:08:10.063927,-5,2025-11-07 17:08:14.470936077
2025-11-07 17:08:10.063927,-1127,2025-11-07 17:08:14.478628385
2025-11-07 17:08:10.063927,-17665,2025-11-07 17:08:14.486320692
2025-11-07 17:08:10.063927,-5,2025-11-07 17:08:14.494013000
2025-11-07 17:08:10.063927,-1089,2025-11-07 17:08:14.501705308
2025-11-07 17:08:10.063927,-17665,2025-11-07 17:08:14.509397615
2025-11-07 17:08:10.063927,-5,2025-11-07 17:08:14.517089923
2025-11-07 17:08:10.063927,-1049,2025-11-07 17:08:14.524782231
2025-11-07 17:08:10.063927,-11521,2025-11-07 17:08:14.532474538
2025-11-07 17:08:10.063927,-5,2025-11-07 17:08:14.540166846
2025-11-07 17:08:10.063927,-1053,2025-11-07 17:08:14.547859154
2025-11-07 17:08:10.063927,-1281,2025-11-07 17:08:14.555551462
2025-11-07 17:08:10.063927,-5,2025-11-07 17:08:14.563243769
2025-11-07 17:08:10.063927,-1044,2025-11-07 17:08:14.570936077
2025-11-07 17:08:10.063927,6655,2025-11-07 17:08:14.578628385
2025-11-07 17:08:10.063927,-4,2025-11-07 17:08:14.586320692
2025-11-07 17:08:10.063927,-1013,2025-11-07 17:08:14.594013000
2025-11-07 17:08:10.063927,-1281,2025-11-07 17:08:14.601705308
2025-11-07 17:08:10.063927,-5,2025-11-07 17:08:14.609397615
2025-11-07 17:08:10.063927,-1006,2025-11-07 17:08:14.617089923
2025-11-07 17:08:10.063927,-4353,2025-11-07 17:08:14.624782231
2025-11-07 17:08:10.063927,-5,2025-11-07 17:08:14.632474538
2025-11-07 17:08:10.063927,-1039,2025-11-07 17:08:14.640166846
2025-11-07 17:08:10.063927,-6657,2025-11-07 17:08:14.647859154
2025-11-07 17:08:10.063927,-5,2025-11-07 17:08:14.655551462
2025-11-07 17:08:10.063927,-1077,2025-11-07 17:08:14.663243769
2025-11-07 17:08:10.063927,-11521,2025-11-07 17:08:14.670936077
2025-11-07 17:08:10.063927,-5,2025-11-07 17:08:14.678628385
2025-11-07 17:08:10.063927,-1115,2025-11-07 17:08:14.686320692
2025-11-07 17:08:10.063927,-23041,2025-11-07 17:08:14.694013000
2025-11-07 17:08:10.063927,-5,2025-11-07 17:08:14.701705308
2025-11-07 17:08:10.063927,-1111,2025-11-07 17:08:14.709397615
2025-11-07 17:08:10.063927,-32257,2025-11-07 17:08:14.717089923
2025-11-07 17:08:10.063927,-5,2025-11-07 17:08:14.724782231
2025-11-07 17:08:10.063927,-1132,2025-11-07 17:08:14.732474538
2025-11-07 17:08:10.063927,31487,2025-11-07 17:08:14.740166846
2025-11-07 17:08:10.063927,-5,2025-11-07 17:08:14.747859154
2025-11-07 17:08:10.063927,-1175,2025-11-07 17:08:14.755551462
2025-11-07 17:08:10.063927,-31745,2025-11-07 17:08:14.763243769
2025-11-07 17:08:10.063927,-5,2025-11-07 17:08:14.770936077
2025-11-07 17:08:10.063927,-1173,2025-11-07 17:08:14.778628385
2025-11-07 17:08:10.063927,-30465,2025-11-07 17:08:14.786320692
2025-11-07 17:08:10.063927,-5,2025-11-07 17:08:14.794013000
2025-11-07 17:08:10.063927,-1146,2025-11-07 17:08:14.801705308
2025-11-07 17:08:10.063927,30207,2025-11-07 17:08:14.809397615
2025-11-07 17:08:10.063927,-5,2025-11-07 17:08:14.817089923
2025-11-07 17:08:10.063927,-1063,2025-11-07 17:08:14.824782231
2025-11-07 17:08:10.063927,20223,2025-11-07 17:08:14.832474538
2025-11-07 17:08:10.063927,-4,2025-11-07 17:08:14.840166846
2025-11-07 17:08:10.063927,-848,2025-11-07 17:08:14.847859154
2025-11-07 17:08:10.063927,-32001,2025-11-07 17:08:14.855551462
2025-11-07 17:08:10.063927,-4,2025-11-07 17:08:14.863243769
2025-11-07 17:08:10.063927,-1008,2025-11-07 17:08:14.870936077
2025-11-07 17:08:10.063927,12287,2025-11-07 17:08:14.878628385
2025-11-07 17:08:10.063927,-4,2025-11-07 17:08:14.886320692
2025-11-07 17:08:10.063927,-984,2025-11-07 17:08:14.894013000
2025-11-07 17:08:10.063927,-1,2025-11-07 17:08:14.901705308
2025-11-07 17:08:10.063927,-5,2025-11-07 17:08:14.909397615
2025-11-07 17:08:10.063927,-989,2025-11-07 17:08:14.917089923
2025-11-07 17:08:10.063927,3071,2025-11-07 17:08:14.924782231
2025-11-07 17:08:10.063927,-4,2025-11-07 17:08:14.932474538
2025-11-07 17:08:10.063927,-1008,2025-11-07 17:08:14.940166846
2025-11-07 17:08:10.063927,6143,2025-11-07 17:08:14.947859154
2025-11-07 17:08:10.063927,-4,2025-11-07 17:08:14.955551462
2025-11-07 17:08:10.063927,-1015,2025-11-07 17:08:14.963243769
2025-11-07 17:08:10.063927,14079,2025-11-07 17:08:14.970936077
2025-11-07 17:08:10.063927,-4,2025-11-07 17:08:14.978628385
2025-11-07 17:08:10.063927,-996,2025-11-07 17:08:14.986320692
2025-11-07 17:08:10.063927,1791,2025-11-07 17:08:14.994013000
2025-11-07 17:08:10.063927,-4,2025-11-07 17:08:15.001705308
2025-11-07 17:08:10.063927,-1003,2025-11-07 17:08:15.009397615
2025-11-07 17:08:10.063927,-4865,2025-11-07 17:08:15.017089923
2025-11-07 17:08:10.063927,-5,2025-11-07 17:08:15.024782231
2025-11-07 17:08:10.063927,-1032,2025-11-07 17:08:15.032474538
2025-11-07 17:08:10.063927,-6145,2025-11-07 17:08:15.040166846
2025-11-07 17:08:10.063927,-5,2025-11-07 17:08:15.047859154
2025-11-07 17:08:10.063927,-1065,2025-11-07 17:08:15.055551462
2025-11-07 17:08:10.063927,-1281,2025-11-07 17:08:15.063243769
2025-11-07 17:08:10.063927,-5,2025-11-07 17:08:15.070936077
2025-11-07 17:08:10.063927,-1061,2025-11-07 17:08:15.078628385
2025-11-07 17:08:10.063927,-6145,2025-11-07 17:08:15.086320692
2025-11-07 17:08:10.063927,-5,2025-11-07 17:08:15.094013000
2025-11-07 17:08:10.063927,-1032,2025-11-07 17:08:15.101705308
2025-11-07 17:08:10.691109,-1061,2025-11-07 17:08:15.109397615
2025-11-07 17:08:10.691109,3071,2025-11-07 17:08:15.117089923
2025-11-07 17:08:10.691109,-4,2025-11-07 17:08:15.124782231
2025-11-07 17:08:10.691109,-1020,2025-11-07 17:08:15.132474538
2025-11-07 17:08:10.691109,3071,2025-11-07 17:08:15.140166846
2025-11-07 17:08:10.691109,-4,2025-11-07 17:08:15.147859154
2025-11-07 17:08:10.691109,-968,2025-11-07 17:08:15.155551462
2025-11-07 17:08:10.691109,3583,2025-11-07 17:08:15.163243769
2025-11-07 17:08:10.691109,-4,2025-11-07 17:08:15.170936077
2025-11-07 17:08:10.691109,-1008,2025-11-07 17:08:15.178628385
2025-11-07 17:08:10.691109,4863,2025-11-07 17:08:15.186320692
2025-11-07 17:08:10.691109,-4,2025-11-07 17:08:15.194013000
2025-11-07 17:08:10.691109,-1018,2025-11-07 17:08:15.201705308
2025-11-07 17:08:10.691109,9215,2025-11-07 17:08:15.209397615
2025-11-07 17:08:10.691109,-4,2025-11-07 17:08:15.217089923
2025-11-07 17:08:10.691109,-1025,2025-11-07 17:08:15.224782230
2025-11-07 17:08:10.691109,1279,2025-11-07 17:08:15.232474538
2025-11-07 17:08:10.691109,-4,2025-11-07 17:08:15.240166846
2025-11-07 17:08:10.691109,-1022,2025-11-07 17:08:15.247859154
2025-11-07 17:08:10.691109,-12801,2025-11-07 17:08:15.255551462
2025-11-07 17:08:10.691109,-5,2025-11-07 17:08:15.263243769
2025-11-07 17:08:10.691109,-1056,2025-11-07 17:08:15.270936077
2025-11-07 17:08:10.691109,-16385,2025-11-07 17:08:15.278628385
2025-11-07 17:08:10.691109,-5,2025-11-07 17:08:15.286320692
2025-11-07 17:08:10.691109,-1113,2025-11-07 17:08:15.294013000
2025-11-07 17:08:10.691109,-18177,2025-11-07 17:08:15.301705308
2025-11-07 17:08:10.691109,-5,2025-11-07 17:08:15.309397615
2025-11-07 17:08:10.691109,-1142,2025-11-07 17:08:15.317089923
2025-11-07 17:08:10.691109,-24321,2025-11-07 17:08:15.324782231
2025-11-07 17:08:10.691109,-5,2025-11-07 17:08:15.332474538
2025-11-07 17:08:10.691109,-1108,2025-11-07 17:08:15.340166846
2025-11-07 17:08:10.691109,-21249,2025-11-07 17:08:15.347859154
2025-11-07 17:08:10.691109,-5,2025-11-07 17:08:15.355551462
2025-11-07 17:08:10.691109,-1049,2025-11-07 17:08:15.363243769
2025-11-07 17:08:10.691109,-9729,2025-11-07 17:08:15.370936077
2025-11-07 17:08:10.691109,-5,2025-11-07 17:08:15.378628385
2025-11-07 17:08:10.691109,-1034,2025-11-07 17:08:15.386320692
2025-11-07 17:08:10.691109,7423,2025-11-07 17:08:15.394013000
2025-11-07 17:08:10.691109,-4,2025-11-07 17:08:15.401705308
2025-11-07 17:08:10.691109,-1013,2025-11-07 17:08:15.409397615
2025-11-07 17:08:10.691109,16639,2025-11-07 17:08:15.417089923
2025-11-07 17:08:10.691109,-4,2025-11-07 17:08:15.424782231
2025-11-07 17:08:10.691109,-963,2025-11-07 17:08:15.432474538
2025-11-07 17:08:10.691109,16639,2025-11-07 17:08:15.440166846
2025-11-07 17:08:10.691109,-4,2025-11-07 17:08:15.447859154
2025-11-07 17:08:10.691109,-903,2025-11-07 17:08:15.455551462
2025-11-07 17:08:10.691109,25599,2025-11-07 17:08:15.463243769
2025-11-07 17:08:10.691109,-4,2025-11-07 17:08:15.470936077
2025-11-07 17:08:10.691109,-901,2025-11-07 17:08:15.478628385
2025-11-07 17:08:10.691109,32511,2025-11-07 17:08:15.486320692
2025-11-07 17:08:10.691109,-4,2025-11-07 17:08:15.494013000
2025-11-07 17:08:10.691109,-929,2025-11-07 17:08:15.501705308
2025-11-07 17:08:10.691109,31743,2025-11-07 17:08:15.509397615
2025-11-07 17:08:10.691109,-4,2025-11-07 17:08:15.517089923
2025-11-07 17:08:10.691109,-927,2025-11-07 17:08:15.524782231
2025-11-07 17:08:10.691109,25599,2025-11-07 17:08:15.532474538
2025-11-07 17:08:10.691109,-4,2025-11-07 17:08:15.540166846
2025-11-07 17:08:10.691109,-910,2025-11-07 17:08:15.547859154
2025-11-07 17:08:10.691109,20735,2025-11-07 17:08:15.555551462
2025-11-07 17:08:10.691109,-4,2025-11-07 17:08:15.563243769
2025-11-07 17:08:10.691109,-918,2025-11-07 17:08:15.570936077
2025-11-07 17:08:10.691109,23807,2025-11-07 17:08:15.578628385
2025-11-07 17:08:10.691109,-4,2025-11-07 17:08:15.586320692
2025-11-07 17:08:10.691109,-934,2025-11-07 17:08:15.594013000
2025-11-07 17:08:10.691109,29951,2025-11-07 17:08:15.601705308
2025-11-07 17:08:10.691109,-4,2025-11-07 17:08:15.609397615
2025-11-07 17:08:10.691109,-937,2025-11-07 17:08:15.617089923
2025-11-07 17:08:10.691109,23807,2025-11-07 17:08:15.624782231
2025-11-07 17:08:10.691109,-4,2025-11-07 17:08:15.632474538
2025-11-07 17:08:10.691109,-958,2025-11-07 17:08:15.640166846
2025-11-07 17:08:10.691109,23295,2025-11-07 17:08:15.647859154
2025-11-07 17:08:10.691109,-4,2025-11-07 17:08:15.655551462
2025-11-07 17:08:10.691109,-774,2025-11-07 17:08:15.663243769
2025-11-07 17:08:10.691109,16383,2025-11-07 17:08:15.670936077
2025-11-07 17:08:10.691109,-3,2025-11-07 17:08:15.678628385
2025-11-07 17:08:10.691109,-753,2025-11-07 17:08:15.686320692
2025-11-07 17:08:10.691109,-20993,2025-11-07 17:08:15.694013000
2025-11-07 17:08:10.691109,-4,2025-11-07 17:08:15.701705308
2025-11-07 17:08:10.691109,-896,2025-11-07 17:08:15.709397615
2025-11-07 17:08:10.691109,-22273,2025-11-07 17:08:15.717089923
2025-11-07 17:08:10.691109,-4,2025-11-07 17:08:15.724782231
2025-11-07 17:08:10.691109,-894,2025-11-07 17:08:15.732474538
2025-11-07 17:08:10.691109,31231,2025-11-07 17:08:15.740166846
2025-11-07 17:08:10.691109,-4,2025-11-07 17:08:15.747859154
2025-11-07 17:08:10.691109,-870,2025-11-07 17:08:15.755551462
2025-11-07 17:08:10.691109,31231,2025-11-07 17:08:15.763243769
2025-11-07 17:08:10.691109,-4,2025-11-07 17:08:15.770936077
2025-11-07 17:08:10.691109,-882,2025-11-07 17:08:15.778628385
2025-11-07 17:08:10.691109,-25089,2025-11-07 17:08:15.786320692
2025-11-07 17:08:10.691109,-4,2025-11-07 17:08:15.794013000
2025-11-07 17:08:10.691109,-867,2025-11-07 17:08:15.801705308
2025-11-07 17:08:10.691109,-17921,2025-11-07 17:08:15.809397615
2025-11-07 17:08:10.691109,-4,2025-11-07 17:08:15.817089923
2025-11-07 17:08:10.691109,-884,2025-11-07 17:08:15.824782231
2025-11-07 17:08:10.691109,32511,2025-11-07 17:08:15.832474538
2025-11-07 17:08:10.691109,-4,2025-11-07 17:08:15.840166846
2025-11-07 17:08:10.691109,-910,2025-11-07 17:08:15.847859154
2025-11-07 17:08:10.691109,18431,2025-11-07 17:08:15.855551462
2025-11-07 17:08:10.691109,-4,2025-11-07 17:08:15.863243769
2025-11-07 17:08:10.691109,-927,2025-11-07 17:08:15.870936077
2025-11-07 17:08:10.691109,20735,2025-11-07 17:08:15.878628385
2025-11-07 17:08:10.691109,-4,2025-11-07 17:08:15.886320692
2025-11-07 17:08:10.691109,-937,2025-11-07 17:08:15.894013000
2025-11-07 17:08:10.691109,-28929,2025-11-07 17:08:15.901705308
2025-11-07 17:08:10.691109,-4,2025-11-07 17:08:15.909397615
2025-11-07 17:08:10.691109,-884,2025-11-07 17:08:15.917089923
2025-11-07 17:08:10.691109,-12289,2025-11-07 17:08:15.924782231
2025-11-07 17:08:10.691109,-4,2025-11-07 17:08:15.932474538
2025-11-07 17:08:10.691109,-772,2025-11-07 17:08:15.940166846
2025-11-07 17:08:11.234143,-760,2025-11-07 17:08:15.947859154
2025-11-07 17:08:11.234143,19455,2025-11-07 17:08:15.955551462
2025-11-07 17:08:11.234143,-3,2025-11-07 17:08:15.963243769
2025-11-07 17:08:11.234143,-705,2025-11-07 17:08:15.970936077
2025-11-07 17:08:11.234143,19967,2025-11-07 17:08:15.978628385
2025-11-07 17:08:11.234143,-3,2025-11-07 17:08:15.986320692
2025-11-07 17:08:11.234143,-650,2025-11-07 17:08:15.994013000
2025-11-07 17:08:11.234143,24319,2025-11-07 17:08:16.001705308
2025-11-07 17:08:11.234143,-3,2025-11-07 17:08:16.009397615
2025-11-07 17:08:11.234143,-646,2025-11-07 17:08:16.017089923
2025-11-07 17:08:11.234143,27391,2025-11-07 17:08:16.024782231
2025-11-07 17:08:11.234143,-3,2025-11-07 17:08:16.032474538
2025-11-07 17:08:11.234143,-696,2025-11-07 17:08:16.040166846
2025-11-07 17:08:11.234143,19455,2025-11-07 17:08:16.047859154
2025-11-07 17:08:11.234143,-3,2025-11-07 17:08:16.055551462
2025-11-07 17:08:11.234143,-743,2025-11-07 17:08:16.063243769
2025-11-07 17:08:11.234143,511,2025-11-07 17:08:16.070936077
2025-11-07 17:08:11.234143,-3,2025-11-07 17:08:16.078628385
2025-11-07 17:08:11.234143,-789,2025-11-07 17:08:16.086320692
2025-11-07 17:08:11.234143,-11777,2025-11-07 17:08:16.094013000
2025-11-07 17:08:11.234143,-4,2025-11-07 17:08:16.101705308
2025-11-07 17:08:11.234143,-829,2025-11-07 17:08:16.109397615
2025-11-07 17:08:11.234143,31231,2025-11-07 17:08:16.117089923
2025-11-07 17:08:11.234143,-4,2025-11-07 17:08:16.124782231
2025-11-07 17:08:11.234143,-898,2025-11-07 17:08:16.132474538
2025-11-07 17:08:11.234143,-26369,2025-11-07 17:08:16.140166846
2025-11-07 17:08:11.234143,-4,2025-11-07 17:08:16.147859154
2025-11-07 17:08:11.234143,-903,2025-11-07 17:08:16.155551462
2025-11-07 17:08:11.234143,-24065,2025-11-07 17:08:16.163243769
2025-11-07 17:08:11.234143,-4,2025-11-07 17:08:16.170936077
2025-11-07 17:08:11.234143,-844,2025-11-07 17:08:16.178628385
2025-11-07 17:08:11.234143,-14337,2025-11-07 17:08:16.186320692
2025-11-07 17:08:11.234143,-4,2025-11-07 17:08:16.194013000
2025-11-07 17:08:11.234143,-767,2025-11-07 17:08:16.201705308
2025-11-07 17:08:11.234143,5375,2025-11-07 17:08:16.209397615
2025-11-07 17:08:11.234143,-3,2025-11-07 17:08:16.217089923
2025-11-07 17:08:11.234143,-686,2025-11-07 17:08:16.224782230
2025-11-07 17:08:11.234143,27391,2025-11-07 17:08:16.232474538
2025-11-07 17:08:11.234143,-3,2025-11-07 17:08:16.240166846
2025-11-07 17:08:11.234143,-679,2025-11-07 17:08:16.247859154
2025-11-07 17:08:11.234143,28415,2025-11-07 17:08:16.255551462
2025-11-07 17:08:11.234143,-3,2025-11-07 17:08:16.263243769
2025-11-07 17:08:11.234143,-689,2025-11-07 17:08:16.270936077
2025-11-07 17:08:11.234143,17407,2025-11-07 17:08:16.278628385
2025-11-07 17:08:11.234143,-3,2025-11-07 17:08:16.286320692
2025-11-07 17:08:11.234143,-710,2025-11-07 17:08:16.294013000
2025-11-07 17:08:11.234143,511,2025-11-07 17:08:16.301705308
2025-11-07 17:08:11.234143,-3,2025-11-07 17:08:16.309397615
2025-11-07 17:08:11.234143,-770,2025-11-07 17:08:16.317089923
2025-11-07 17:08:11.234143,-7425,2025-11-07 17:08:16.324782231
2025-11-07 17:08:11.234143,-4,2025-11-07 17:08:16.332474538
2025-11-07 17:08:11.234143,-825,2025-11-07 17:08:16.340166846
2025-11-07 17:08:11.234143,-11777,2025-11-07 17:08:16.347859154
2025-11-07 17:08:11.234143,-4,2025-11-07 17:08:16.355551462
2025-11-07 17:08:11.234143,-853,2025-11-07 17:08:16.363243769
2025-11-07 17:08:11.234143,-21505,2025-11-07 17:08:16.370936077
2025-11-07 17:08:11.234143,-4,2025-11-07 17:08:16.378628385
2025-11-07 17:08:11.234143,-872,2025-11-07 17:08:16.386320692
2025-11-07 17:08:11.234143,29951,2025-11-07 17:08:16.394013000
2025-11-07 17:08:11.234143,-4,2025-11-07 17:08:16.401705308
2025-11-07 17:08:11.234143,-896,2025-11-07 17:08:16.409397615
2025-11-07 17:08:11.234143,25087,2025-11-07 17:08:16.417089923
2025-11-07 17:08:11.234143,-4,2025-11-07 17:08:16.424782231
2025-11-07 17:08:11.234143,-927,2025-11-07 17:08:16.432474538
2025-11-07 17:08:11.234143,29951,2025-11-07 17:08:16.440166846
2025-11-07 17:08:11.234143,-4,2025-11-07 17:08:16.447859154
2025-11-07 17:08:11.234143,-906,2025-11-07 17:08:16.455551462
2025-11-07 17:08:11.234143,-17153,2025-11-07 17:08:16.463243769
2025-11-07 17:08:11.234143,-4,2025-11-07 17:08:16.470936077
2025-11-07 17:08:11.234143,-808,2025-11-07 17:08:16.478628385
2025-11-07 17:08:11.234143,-6913,2025-11-07 17:08:16.486320692
2025-11-07 17:08:11.234143,-4,2025-11-07 17:08:16.494013000
2025-11-07 17:08:11.234143,-767,2025-11-07 17:08:16.501705308
2025-11-07 17:08:11.234143,2815,2025-11-07 17:08:16.509397615
2025-11-07 17:08:11.234143,-3,2025-11-07 17:08:16.517089923
2025-11-07 17:08:11.234143,-619,2025-11-07 17:08:16.524782231
2025-11-07 17:08:11.234143,2559,2025-11-07 17:08:16.532474538
2025-11-07 17:08:11.234143,-2,2025-11-07 17:08:16.540166846
2025-11-07 17:08:11.234143,-562,2025-11-07 17:08:16.547859154
2025-11-07 17:08:11.234143,30463,2025-11-07 17:08:16.555551462
2025-11-07 17:08:11.234143,-3,2025-11-07 17:08:16.563243769
2025-11-07 17:08:11.234143,-705,2025-11-07 17:08:16.570936077
2025-11-07 17:08:11.234143,16895,2025-11-07 17:08:16.578628385
2025-11-07 17:08:11.234143,-3,2025-11-07 17:08:16.586320692
2025-11-07 17:08:11.234143,-717,2025-11-07 17:08:16.594013000
